\id RUT
\c 1
\level phrase
\separators @/_
0.000	4.080	s1
4.080	31.900	1
31.900	51.120	2
51.120	60.280	3
60.280	70.900	4
70.900	79.600	5
79.600	82.760	s2
82.760	105.000	6
105.000	109.760	7
109.760	127.020	8
127.020	144.960	9
144.960	152.100	10
152.100	165.960	11
165.960	177.240	12
177.240	196.600	13
196.600	208.060	14
208.060	216.860	15
216.860	236.280	16
236.280	254.980	17
254.980	264.440	18
264.440	267.360	s3
267.360	279.700	19
279.700	293.600	20
293.600	310.640	21
310.640	322.600	22
