\id GEN
\c 7
\level phrase
\separators @/_
0.000	15.200	1
15.200	28.480	2
28.480	41.540	3
41.540	53.640	4
53.640	59.280	5
59.280	63.580	6
63.580	72.640	7
72.640	82.540	8
82.540	88.800	9
88.800	94.460	10
94.460	100.120	11
100.120	107.600	12
107.600	118.780	13
118.780	132.180	14
132.180	140.420	15
140.420	150.400	16
150.400	152.900	s1
152.900	161.080	17
161.080	169.220	18
169.220	174.000	19
174.000	179.120	20
179.120	198.400	21
198.400	202.520	22
202.520	220.200	23
220.200	225.040	24
