\id GEN
\c 48
\level phrase
\separators @/_
0.000	4.720	s1
4.720	20.960	1
20.960	33.900	2
33.900	45.240	3
45.240	60.020	4
60.020	75.520	5
75.520	86.720	6
86.720	103.120	7
103.120	109.080	8
109.080	123.000	9
123.000	133.320	10
133.320	147.960	11
147.960	156.980	12
156.980	173.520	13
173.520	187.520	14
187.520	205.640	15
205.640	226.760	16
226.760	240.520	17
240.520	249.040	18
249.040	266.680	19
266.680	291.560	20
291.560	303.660	21
303.660	317.560	22
