\id GEN
\c 13
\level phrase
\separators @/_
0.000	5.280	s1
5.280	18.480	1
18.480	27.820	2
27.820	40.040	3
40.040	48.060	4
48.060	58.200	5
58.200	66.640	6
66.640	78.120	7
78.120	90.520	8
90.520	111.480	9
111.480	136.340	10
136.340	149.360	11
149.360	161.820	12
161.820	172.100	13
172.100	182.520	14
182.520	189.880	15
189.880	196.680	16
196.680	206.820	17
206.820	220.920	18
