\id GEN
\c 33
\level phrase
\separators @/_
0.000	3.020	s1
3.020	18.940	1
18.940	30.200	2
30.200	40.760	3
40.760	47.480	4
47.480	60.500	5
60.500	67.720	6
67.720	78.820	7
78.820	92.320	8
92.320	101.880	9
101.880	115.620	10
115.620	132.780	11
132.780	138.000	12
138.000	151.640	13
151.640	163.460	14
163.460	180.280	15
180.280	185.720	16
185.720	202.320	17
202.320	213.460	18
213.460	225.720	19
225.720	231.600	20
