\id GEN
\c 28
\level phrase
\separators @/_
0.000	1.640	s1
1.640	12.040	1
12.040	26.560	2
26.560	37.080	3
37.080	52.840	4
52.840	66.460	5
66.460	80.360	6
80.360	89.520	7
89.520	95.720	8
95.720	113.280	9
113.280	120.240	10
120.240	130.720	11
130.720	145.160	12
145.160	162.760	13
162.760	179.520	14
179.520	198.000	15
198.000	204.960	16
204.960	217.560	17
217.560	232.400	18
232.400	237.840	19
237.840	251.960	20
251.960	260.180	21
260.180	274.040	22
