\id GEN
\c 40
\level phrase
\separators @/_
0.000	3.720	s1
3.720	21.500	1-3
21.500	33.760	4
33.760	42.540	5
42.540	52.640	6
52.640	59.320	7
59.320	74.480	8
74.480	83.800	9
83.800	96.020	10
96.020	102.360	11
102.360	110.260	12
110.260	124.200	13
124.200	133.880	14
133.880	144.240	15
144.240	160.440	16
160.440	171.060	17
171.060	178.000	18
178.000	186.280	19
186.280	198.340	20
198.340	207.880	21
207.880	217.960	22
217.960	224.680	23
