\id GEN
\c 16
\level phrase
\separators @/_
0.000	1.360	s1
1.360	15.360	1
15.360	41.040	2
41.040	47.940	3
47.940	57.780	4
57.780	72.280	5
72.280	88.380	6
88.380	98.460	7
98.460	110.600	8
110.600	119.160	9
119.160	126.520	10
126.520	135.480	11
135.480	151.260	12
151.260	165.000	13
165.000	172.280	14
172.280	179.360	15
179.360	184.320	16
