\id GEN
\c 22
\level phrase
\separators @/_
0.000	3.840	s1
3.840	17.320	1
17.320	31.200	2
31.200	46.000	3
46.000	55.880	4
55.880	69.000	5
69.000	78.320	6
78.320	95.160	7
95.160	104.780	8
104.780	116.480	9
116.480	121.120	10
121.120	131.260	11
131.260	146.900	12
146.900	158.140	13
158.140	173.240	14
173.240	177.480	15
177.480	190.000	16
190.000	206.680	17
206.680	214.420	18
214.420	225.580	19
225.580	233.380	20
233.380	242.520	21
242.520	245.640	22
245.640	255.360	23
255.360	264.960	24
