\id GEN
\c 14
\level phrase
\separators @/_
0.000	4.600	s1
4.600	19.380	1
19.380	34.040	2
34.040	44.400	3
44.400	57.980	4
57.980	77.340	5
77.340	89.920	6
89.920	103.880	7
103.880	121.820	8
121.820	134.880	9
134.880	155.280	10
155.280	166.240	11
166.240	176.280	12
176.280	200.420	13
200.420	221.200	14
221.200	238.200	15
238.200	254.780	16
254.780	271.680	17
271.680	285.000	18
285.000	292.760	19
292.760	311.240	20
311.240	316.300	21
316.300	328.460	22
328.460	337.460	23
337.460	355.040	24
