\id GEN
\c 40
\level verse
8.343	19.230	1
19.230	28.170	2
28.170	36.268	3
36.268	47.403	4
47.403	63.336	5
63.336	70.050	6
70.050	81.432	7
81.432	97.166	8
97.166	107.695	9
107.695	117.142	10
117.142	130.413	11
130.413	135.658	12
135.658	153.984	13
153.984	167.811	14
167.811	177.864	15
177.864	193.916	16
193.916	205.290	17
205.290	211.091	18
211.091	222.865	19
222.865	239.748	20
239.748	247.972	21
247.972	253.853	22
253.853	258.853	23
