\id JOB
\c 2
\level verse
5.181	19.880	1
19.880	34.355	2
34.355	73.744	3
73.744	85.560	4
85.560	99.783	5
99.783	109.365	6
109.365	126.030	7
126.030	136.850	8
136.850	153.259	9
153.259	175.224	10
175.224	199.525	11
199.525	219.215	12
219.215	224.215	13
