\id JOS
\c 12
\level verse
9.261	29.152	1
29.152	52.188	2
52.188	68.898	3
68.898	83.864	4
83.864	100.941	5
100.941	120.049	6
120.049	145.386	7
145.386	166.546	8
166.546	173.728	9
173.728	179.097	10
179.097	184.458	11
184.458	189.661	12
189.661	194.610	13
194.610	199.620	14
199.620	204.919	15
204.919	209.933	16
209.933	214.863	17
214.863	219.815	18
219.815	224.753	19
224.753	230.787	20
230.787	236.313	21
236.313	241.851	22
241.851	249.698	23
249.698	254.698	24
