\id GEN
\c 28
\level verse
4.935	13.672	1
13.672	25.839	2
25.839	37.451	3
37.451	52.501	4
52.501	66.660	5
66.660	80.324	6
80.324	89.023	7
89.023	95.417	8
95.417	109.271	9
109.271	112.853	10
112.853	126.113	11
126.113	140.173	12
140.173	156.190	13
156.190	169.812	14
169.812	182.714	15
182.714	193.441	16
193.441	203.679	17
203.679	213.455	18
213.455	219.278	19
219.278	231.188	20
231.188	237.811	21
237.811	242.811	22
