\id 1CH
\c 22
\level verse
5.518	18.548	1
18.548	37.792	2
37.792	54.148	3
54.148	68.465	4
68.465	96.090	5
96.090	107.758	6
107.758	118.070	7
118.070	139.943	8
139.943	161.741	9
161.741	179.046	10
179.046	191.516	11
191.516	207.374	12
207.374	224.844	13
224.844	247.175	14
247.175	260.234	15
260.234	273.242	16
273.242	282.731	17
282.731	308.751	18
308.751	313.751	19
