\id JOS
\c 3
\level verse
7.400	20.180	1
20.180	24.427	2
24.427	41.754	3
41.754	58.005	4
58.005	68.288	5
68.288	81.214	6
81.214	95.383	7
95.383	109.574	8
109.574	116.733	9
116.733	134.222	10
134.222	142.112	11
142.112	149.241	12
149.241	163.062	13
163.062	173.721	14
173.721	189.381	15
189.381	215.336	16
215.336	220.336	17
