\id EZR
\c 3
\level verse
8.054	19.708	1
19.708	43.044	2
43.044	60.074	3
60.074	72.437	4
72.437	90.244	5
90.244	105.980	6
105.980	133.370	7
133.370	172.398	8
172.398	194.464	9
194.464	221.066	10
221.066	245.283	11
245.283	267.226	12
267.226	272.226	13
