\id ISA
\c 42
\level verse
9.058	28.368	1
28.368	38.023	2
38.023	52.310	3
52.310	69.473	4
69.473	94.438	5
94.438	116.903	6
116.903	131.416	7
131.416	144.821	8
144.821	162.190	9
162.190	181.537	10
181.537	201.007	11
201.007	209.983	12
209.983	232.152	13
232.152	251.828	14
251.828	272.355	15
272.355	304.352	16
304.352	324.612	17
324.612	331.580	18
331.580	352.020	19
352.020	365.352	20
365.352	376.602	21
376.602	401.412	22
401.412	409.882	23
409.882	434.899	24
434.899	439.899	25
