\id JOS
\c 4
\level verse
4.601	11.703	1
11.703	16.972	2
16.972	32.299	3
32.299	41.584	4
41.584	56.223	5
56.223	67.340	6
67.340	91.109	7
91.109	116.668	8
116.668	130.416	9
130.416	148.000	10
148.000	159.755	11
159.755	173.027	12
173.027	184.008	13
184.008	196.802	14
196.802	199.612	15
199.612	207.050	16
207.050	214.859	17
214.859	232.589	18
232.589	243.039	19
243.039	250.704	20
250.704	262.244	21
262.244	269.754	22
269.754	289.484	23
289.484	294.484	24
