\id 1CH
\c 13
\level verse
8.356	19.796	1
19.796	52.344	2
52.344	63.778	3
63.778	71.870	4
71.870	88.111	5
88.111	108.331	6
108.331	122.731	7
122.731	138.960	8
138.960	153.640	9
153.640	170.450	10
170.450	183.341	11
183.341	193.470	12
193.470	205.239	13
205.239	210.239	14
