\id ISA
\c 17
\level verse
10.666	25.466	1
25.466	39.441	2
39.441	59.489	3
59.489	69.109	4
69.109	86.779	5
86.779	110.221	6
110.221	123.238	7
123.238	143.326	8
143.326	161.096	9
161.096	181.626	10
181.626	199.246	11
199.246	216.546	12
216.546	240.336	13
240.336	245.336	14
