\id JER
\c 15
\level verse
6.027	26.996	1
26.996	56.922	2
56.922	79.266	3
79.266	97.765	4
97.765	109.546	5
109.546	132.704	6
132.704	152.444	7
152.444	175.934	8
175.934	201.545	9
201.545	227.525	10
227.525	243.927	11
243.927	253.266	12
253.266	268.155	13
268.155	283.084	14
283.084	307.901	15
307.901	326.612	16
326.612	344.982	17
344.982	363.101	18
363.101	392.297	19
392.297	415.998	20
415.998	420.998	21
