\id PSA
\c 40
\level verse
10.656	19.338	1
19.338	35.075	2
35.075	52.384	3
52.384	65.499	4
65.499	91.652	5
91.652	105.000	6
105.000	114.380	7
114.380	123.396	8
123.396	135.801	9
135.801	153.551	10
153.551	166.516	11
166.516	186.866	12
186.866	196.341	13
196.341	210.130	14
210.130	216.517	15
216.517	230.247	16
230.247	235.247	17
