\id DEU
\c 18
\level verse
9.799	27.139	1
27.139	40.867	2
40.867	52.802	3
52.802	66.162	4
66.162	78.219	5
78.219	88.683	6
88.683	98.664	7
98.664	111.732	8
111.732	123.849	9
123.849	140.465	10
140.465	150.928	11
150.928	165.503	12
165.503	173.443	13
173.443	188.113	14
188.113	201.670	15
201.670	221.163	16
221.163	225.533	17
225.533	243.653	18
243.653	253.029	19
253.029	268.084	20
268.084	275.228	21
275.228	280.228	22
