\id 2KI
\c 16
\level verse
9.542	21.723	1
21.723	39.908	2
39.908	58.553	3
58.553	69.728	4
69.728	85.816	5
85.816	105.931	6
105.931	126.482	7
126.482	141.790	8
141.790	159.136	9
159.136	181.366	10
181.366	196.596	11
196.596	208.591	12
208.591	221.515	13
221.515	238.383	14
238.383	274.079	15
274.079	279.460	16
279.460	299.420	17
299.420	314.015	18
314.015	327.820	19
327.820	332.820	20
