\id 2CH
\c 33
\level verse
9.205	17.778	1
17.778	31.019	2
31.019	52.328	3
52.328	63.269	4
63.269	71.758	5
71.758	99.569	6
99.569	128.369	7
128.369	150.257	8
150.257	166.514	9
166.514	175.198	10
175.198	198.488	11
198.488	209.729	12
209.729	231.148	13
231.148	256.468	14
256.468	276.398	15
276.398	293.198	16
293.198	304.607	17
304.607	323.695	18
323.695	351.125	19
351.125	365.075	20
365.075	372.868	21
372.868	389.474	22
389.474	402.264	23
402.264	411.320	24
411.320	416.320	25
