\id GEN
\c 2
\level verse
4.400	9.781	1
9.781	20.600	2
20.600	34.289	3
34.289	41.119	4
41.119	60.278	5
60.278	66.664	6
66.664	77.856	7
77.856	89.463	8
89.463	107.930	9
107.930	117.443	10
117.443	125.316	11
125.316	132.012	12
132.012	138.309	13
138.309	146.073	14
146.073	155.278	15
155.278	164.495	16
164.495	173.997	17
173.997	182.376	18
182.376	203.245	19
203.245	215.656	20
215.656	229.823	21
229.823	240.535	22
240.535	252.062	23
252.062	261.210	24
261.210	266.210	25
