\id EZK
\c 38
\level verse
11.108	15.549	1
15.549	31.712	2
31.712	44.282	3
44.282	74.114	4
74.114	85.799	5
85.799	104.886	6
104.886	117.167	7
117.167	159.546	8
159.546	175.440	9
175.440	186.656	10
186.656	211.856	11
211.856	235.151	12
235.151	263.216	13
263.216	282.953	14
282.953	299.262	15
299.262	324.501	16
324.501	348.595	17
348.595	362.883	18
362.883	373.705	19
373.705	402.228	20
402.228	417.119	21
417.119	439.140	22
439.140	444.140	23
