\id JDG
\c 2
\level verse
8.298	31.733	1
31.733	48.657	2
48.657	62.965	3
62.965	71.505	4
71.505	83.104	5
83.104	94.712	6
94.712	112.932	7
112.932	120.113	8
120.113	132.721	9
132.721	148.204	10
148.204	155.827	11
155.827	178.934	12
178.934	187.604	13
187.604	208.337	14
208.337	225.914	15
225.914	236.189	16
236.189	258.410	17
258.410	288.730	18
288.730	308.585	19
308.585	327.163	20
327.163	336.103	21
336.103	351.993	22
351.993	356.993	23
