\id PSA
\c 56
\level verse
20.201	32.988	1
32.988	43.547	2
43.547	48.237	3
48.237	62.818	4
62.818	73.126	5
73.126	83.466	6
83.466	94.623	7
94.623	107.247	8
107.247	123.007	9
123.007	133.513	10
133.513	142.663	11
142.663	153.332	12
153.332	158.332	13
