\id ISA
\c 63
\level verse
10.616	32.015	1
32.015	38.786	2
38.786	64.508	3
64.508	73.652	4
73.652	94.635	5
94.635	111.334	6
111.334	137.474	7
137.474	156.952	8
156.952	186.322	9
186.322	203.894	10
203.894	231.699	11
231.699	252.495	12
252.495	264.530	13
264.530	280.674	14
280.674	300.898	15
300.898	323.161	16
323.161	345.210	17
345.210	361.140	18
361.140	366.140	19
