\id ISA
\c 38
\level verse
9.913	34.612	1
34.612	42.403	2
42.403	64.283	3
64.283	68.643	4
68.643	89.522	5
89.522	101.399	6
101.399	113.011	7
113.011	129.712	8
129.712	136.860	9
136.860	151.395	10
151.395	168.522	11
168.522	192.837	12
192.837	208.578	13
208.578	229.547	14
229.547	247.247	15
247.247	265.444	16
265.444	286.644	17
286.644	303.906	18
303.906	319.870	19
319.870	332.264	20
332.264	341.766	21
341.766	346.766	22
