\id EZK
\c 25
\level verse
10.188	13.877	1
13.877	24.148	2
24.148	46.097	3
46.097	72.686	4
72.686	87.623	5
87.623	103.420	6
103.420	140.000	7
140.000	152.825	8
152.825	176.693	9
176.693	191.243	10
191.243	204.343	11
204.343	215.563	12
215.563	242.046	13
242.046	266.274	14
266.274	283.584	15
283.584	303.088	16
303.088	308.088	17
