\id ISA
\c 3
\level verse
10.678	29.901	1
29.901	39.208	2
39.208	50.068	3
50.068	60.000	4
60.000	78.378	5
78.378	98.136	6
98.136	113.460	7
113.460	130.000	8
130.000	153.661	9
153.661	165.010	10
165.010	175.889	11
175.889	199.538	12
199.538	209.795	13
209.795	229.425	14
229.425	244.805	15
244.805	262.255	16
262.255	275.332	17
275.332	286.805	18
286.805	292.303	19
292.303	300.863	20
300.863	305.334	21
305.334	312.224	22
312.224	322.201	23
322.201	341.721	24
341.721	350.322	25
350.322	355.322	26
