\id 1SA
\c 11
\level verse
9.637	25.090	1
25.090	41.959	2
41.959	61.589	3
61.589	74.049	4
74.049	95.931	5
95.931	107.471	6
107.471	134.222	7
134.222	148.341	8
148.341	169.780	9
169.780	182.886	10
182.886	209.590	11
209.590	227.478	12
227.478	239.053	13
239.053	249.287	14
249.287	254.287	15
