\id 1CH
\c 19
\level verse
9.698	18.898	1
18.898	50.337	2
50.337	75.814	3
75.814	89.847	4
89.847	112.586	5
112.586	134.781	6
134.781	157.683	7
157.683	165.546	8
165.546	181.454	9
181.454	197.564	10
197.564	209.034	11
209.034	224.314	12
224.314	239.484	13
239.484	252.094	14
252.094	270.544	15
270.544	292.924	16
292.924	321.082	17
321.082	339.131	18
339.131	344.131	19
