\id JHN
\c 2
\level verse
7.954	13.962	1
13.962	18.076	2
18.076	24.190	3
24.190	31.030	4
31.030	36.146	5
36.146	46.467	6
46.467	53.664	7
53.664	61.475	8
61.475	75.575	9
75.575	91.311	10
91.311	102.229	11
102.229	114.049	12
114.049	119.078	13
119.078	127.457	14
127.457	142.046	15
142.046	150.837	16
150.837	159.006	17
159.006	169.302	18
169.302	176.505	19
176.505	184.910	20
184.910	188.410	21
188.410	200.590	22
200.590	211.700	23
211.700	218.550	24
218.550	223.550	25
