\id ISA
\c 54
\level verse
9.048	34.386	1
34.386	48.297	2
48.297	64.268	3
64.268	81.589	4
81.589	100.509	5
100.509	117.558	6
117.558	128.395	7
128.395	146.294	8
146.294	173.244	9
173.244	192.652	10
192.652	211.172	11
211.172	226.083	12
226.083	235.852	13
235.852	254.061	14
254.061	268.443	15
268.443	286.204	16
286.204	291.204	17
