\id 2SA
\c 21
\level verse
9.593	35.403	1
35.403	66.896	2
66.896	80.791	3
80.791	103.421	4
103.421	128.555	5
128.555	158.956	6
158.956	175.375	7
175.375	198.007	8
198.007	223.961	9
223.961	250.905	10
250.905	262.214	11
262.214	287.684	12
287.684	301.444	13
301.444	328.974	14
328.974	345.572	15
345.572	365.680	16
365.680	389.549	17
389.549	406.011	18
406.011	425.942	19
425.942	446.630	20
446.630	457.416	21
457.416	462.416	22
