\id ISA
\c 26
\level verse
8.705	25.910	1
25.910	34.194	2
34.194	47.463	3
47.463	57.008	4
57.008	74.568	5
74.568	84.844	6
84.844	96.668	7
96.668	111.498	8
111.498	127.648	9
127.648	145.899	10
145.899	168.900	11
168.900	183.866	12
183.866	197.682	13
197.682	220.500	14
220.500	240.943	15
240.943	255.294	16
255.294	268.583	17
268.583	288.213	18
288.213	311.322	19
311.322	327.100	20
327.100	332.100	21
