\id 2CH
\c 10
\level verse
10.017	17.718	1
17.718	32.267	2
32.267	42.375	3
42.375	59.785	4
59.785	70.085	5
70.085	86.815	6
86.815	102.251	7
102.251	116.122	8
116.122	132.822	9
132.822	155.252	10
155.252	174.188	11
174.188	185.826	12
185.826	194.296	13
194.296	218.106	14
218.106	234.434	15
234.434	259.172	16
259.172	267.460	17
267.460	286.188	18
286.188	291.188	19
