\id 2CH
\c 11
\level verse
5.907	23.117	1
23.117	29.458	2
29.458	39.443	3
39.443	64.671	4
64.671	72.138	5
72.138	75.633	6
75.633	79.676	7
79.676	83.182	8
83.182	87.243	9
87.243	97.310	10
97.310	109.953	11
109.953	123.471	12
123.471	133.364	13
133.364	151.445	14
151.445	164.295	15
164.295	183.372	16
183.372	201.350	17
201.350	217.290	18
217.290	227.630	19
227.630	241.091	20
241.091	261.667	21
261.667	273.237	22
273.237	278.237	23
