\id LEV
\c 9
\level verse
8.248	15.588	1
15.588	29.708	2
29.708	44.138	3
44.138	60.048	4
60.048	69.758	5
69.758	80.038	6
80.038	103.478	7
103.478	111.362	8
111.362	123.876	9
123.876	135.000	10
135.000	139.765	11
139.765	149.972	12
149.972	158.855	13
158.855	166.437	14
166.437	178.356	15
178.356	182.076	16
182.076	191.654	17
191.654	205.382	18
205.382	215.372	19
215.372	221.943	20
221.943	231.993	21
231.993	244.772	22
244.772	257.272	23
257.272	262.272	24
