\id 1SA
\c 4
\level verse
5.588	27.723	1
27.723	46.603	2
46.603	68.475	3
68.475	92.135	4
92.135	102.522	5
102.522	117.104	6
117.104	130.411	7
130.411	149.868	8
149.868	168.885	9
168.885	187.124	10
187.124	198.344	11
198.344	212.960	12
212.960	237.978	13
237.978	250.364	14
250.364	258.049	15
258.049	273.654	16
273.654	293.292	17
293.292	318.822	18
318.822	344.702	19
344.702	360.735	20
360.735	375.680	21
375.680	380.680	22
