\id GEN
\c 22
\level verse
7.550	17.676	1
17.676	32.704	2
32.704	53.934	3
53.934	59.974	4
59.974	74.304	5
74.304	87.854	6
87.854	101.594	7
101.594	112.228	8
112.228	128.762	9
128.762	134.050	10
134.050	144.087	11
144.087	159.805	12
159.805	173.943	13
173.943	184.270	14
184.270	188.826	15
188.826	202.147	16
202.147	218.521	17
218.521	227.048	18
227.048	238.597	19
238.597	248.432	20
248.432	256.619	21
256.619	263.549	22
263.549	272.377	23
272.377	277.377	24
