\id PSA
\c 31
\level verse
10.335	22.555	1
22.555	40.344	2
40.344	52.074	3
52.074	62.875	4
62.875	73.956	5
73.956	84.819	6
84.819	98.699	7
98.699	110.604	8
110.604	126.829	9
126.829	142.903	10
142.903	162.141	11
162.141	171.200	12
171.200	190.471	13
190.471	199.468	14
199.468	209.477	15
209.477	218.541	16
218.541	232.247	17
232.247	245.440	18
245.440	261.107	19
261.107	279.349	20
279.349	292.673	21
292.673	308.523	22
308.523	324.284	23
324.284	329.284	24
