\id 1SA
\c 13
\level verse
9.205	18.168	1
18.168	43.418	2
43.418	60.678	3
60.678	78.903	4
78.903	99.347	5
99.347	117.648	6
117.648	135.397	7
135.397	148.685	8
148.685	157.584	9
157.584	166.715	10
166.715	185.335	11
185.335	201.895	12
201.895	223.205	13
223.205	241.860	14
241.860	259.090	15
259.090	273.390	16
273.390	286.094	17
286.094	298.292	18
298.292	313.026	19
313.026	326.243	20
326.243	339.555	21
339.555	361.362	22
361.362	366.362	23
