\id EZR
\c 9
\level verse
9.400	37.211	1
37.211	61.689	2
61.689	74.289	3
74.289	91.939	4
91.939	110.457	5
110.457	127.951	6
127.951	154.841	7
154.841	182.928	8
182.928	212.735	9
212.735	223.770	10
223.770	252.550	11
252.550	288.193	12
288.193	309.123	13
309.123	332.043	14
332.043	337.043	15
