\id JOB
\c 16
\level verse
8.075	11.174	1
11.174	19.753	2
19.753	29.183	3
29.183	48.861	4
48.861	58.910	5
58.910	68.137	6
68.137	79.266	7
79.266	96.602	8
96.602	113.162	9
113.162	127.836	10
127.836	138.896	11
138.896	155.964	12
155.964	170.632	13
170.632	179.624	14
179.624	189.288	15
189.288	198.503	16
198.503	205.933	17
205.933	214.024	18
214.024	221.952	19
221.952	231.460	20
231.460	242.241	21
242.241	247.241	22
