\id PSA
\c 65
\level verse
11.199	21.656	1
21.656	30.966	2
30.966	40.284	3
40.284	57.853	4
57.853	78.348	5
78.348	88.161	6
88.161	98.737	7
98.737	115.244	8
115.244	137.274	9
137.274	154.195	10
154.195	167.483	11
167.483	176.991	12
176.991	181.991	13
