\id PSA
\c 147
\level verse
6.670	17.931	1
17.931	28.081	2
28.081	37.908	3
37.908	46.297	4
46.297	54.669	5
54.669	62.676	6
62.676	72.050	7
72.050	82.669	8
82.669	91.475	9
91.475	100.019	10
100.019	109.865	11
109.865	117.744	12
117.744	128.793	13
128.793	137.924	14
137.924	147.052	15
147.052	156.148	16
156.148	165.334	17
165.334	176.792	18
176.792	186.146	19
186.146	191.146	20
