\id EZK
\c 31
\level verse
12.432	21.054	1
21.054	33.911	2
33.911	56.492	3
56.492	74.403	4
74.403	88.583	5
88.583	107.139	6
107.139	120.432	7
120.432	152.207	8
152.207	165.721	9
165.721	180.935	10
180.935	196.106	11
196.106	225.152	12
225.152	237.441	13
237.441	274.093	14
274.093	305.362	15
305.362	334.267	16
334.267	350.912	17
350.912	355.912	18
