\id EZK
\c 5
\level verse
10.218	29.858	1
29.858	62.426	2
62.426	70.189	3
70.189	86.827	4
86.827	99.537	5
99.537	120.127	6
120.127	145.538	7
145.538	160.577	8
160.577	173.677	9
173.677	195.478	10
195.478	223.328	11
223.328	251.928	12
251.928	276.442	13
276.442	291.973	14
291.973	311.472	15
311.472	335.153	16
335.153	340.153	17
