\id PSA
\c 45
\level verse
17.796	28.877	1
28.877	45.020	2
45.020	55.281	3
55.281	71.408	4
71.408	81.314	5
81.314	92.453	6
92.453	112.788	7
112.788	130.387	8
130.387	144.049	9
144.049	153.816	10
153.816	162.236	11
162.236	170.984	12
170.984	179.486	13
179.486	191.575	14
191.575	199.785	15
199.785	211.415	16
211.415	216.415	17
