\id 1CO
\c 6
\level verse
9.298	20.768	1
20.768	33.384	2
33.384	43.178	3
43.178	52.444	4
52.444	63.152	5
63.152	71.172	6
71.172	82.452	7
82.452	91.666	8
91.666	106.614	9
106.614	116.202	10
116.202	131.370	11
131.370	141.734	12
141.734	156.249	13
156.249	165.420	14
165.420	175.580	15
175.580	186.710	16
186.710	192.349	17
192.349	204.632	18
204.632	215.917	19
215.917	220.917	20
