\id EST
\c 5
\level verse
8.956	29.216	1
29.216	50.786	2
50.786	63.564	3
63.564	77.534	4
77.534	91.444	5
91.444	109.566	6
109.566	114.875	7
114.875	138.493	8
138.493	161.002	9
161.002	173.172	10
173.172	195.992	11
195.992	213.251	12
213.251	225.865	13
225.865	230.865	14
