\id ISA
\c 59
\level verse
10.430	22.099	1
22.099	40.720	2
40.720	58.410	3
58.410	80.400	4
80.400	98.169	5
98.169	117.746	6
117.746	136.626	7
136.626	153.980	8
153.980	171.832	9
171.832	194.268	10
194.268	209.479	11
209.479	230.133	12
230.133	251.547	13
251.547	267.828	14
267.828	283.644	15
283.644	302.586	16
302.586	319.900	17
319.900	338.845	18
338.845	359.135	19
359.135	372.780	20
372.780	377.780	21
