\id PSA
\c 48
\level verse
9.981	19.171	1
19.171	30.910	2
30.910	41.380	3
41.380	49.281	4
49.281	56.733	5
56.733	68.012	6
68.012	75.917	7
75.917	90.831	8
90.831	98.392	9
98.392	111.149	10
111.149	120.763	11
120.763	128.898	12
128.898	144.464	13
144.464	149.464	14
