\id REV
\c 7
\level verse
8.530	24.930	1
24.930	37.599	2
37.599	47.584	3
47.584	55.736	4
55.736	64.524	5
64.524	71.889	6
71.889	79.838	7
79.838	91.038	8
91.038	108.866	9
108.866	116.076	10
116.076	128.038	11
128.038	138.400	12
138.400	145.989	13
145.989	160.690	14
160.690	173.507	15
173.507	181.529	16
181.529	186.529	17
