\id EXO
\c 19
\level verse
7.714	15.808	1
15.808	26.323	2
26.323	40.136	3
40.136	50.163	4
50.163	63.394	5
63.394	73.460	6
73.460	84.549	7
84.549	96.379	8
96.379	114.338	9
114.338	124.369	10
124.369	135.082	11
135.082	151.254	12
151.254	168.238	13
168.238	177.670	14
177.670	185.000	15
185.000	200.396	16
200.396	209.567	17
209.567	225.134	18
225.134	234.164	19
234.164	243.262	20
243.262	255.285	21
255.285	264.551	22
264.551	278.813	23
278.813	293.626	24
293.626	298.626	25
