\id DEU
\c 7
\level verse
7.785	32.175	1
32.175	51.856	2
51.856	63.564	3
63.564	79.086	4
79.086	95.994	5
95.994	113.555	6
113.555	125.716	7
125.716	144.651	8
144.651	161.985	9
161.985	177.646	10
177.646	186.251	11
186.251	201.581	12
201.581	230.411	13
230.411	242.821	14
242.821	261.550	15
261.550	277.185	16
277.185	285.797	17
285.797	295.921	18
295.921	321.111	19
321.111	332.131	20
332.131	341.899	21
341.899	360.721	22
360.721	372.144	23
372.144	390.252	24
390.252	411.663	25
411.663	416.663	26
