\id 2CH
\c 21
\level verse
5.995	20.395	1
20.395	41.266	2
41.266	65.945	3
65.945	81.978	4
81.978	90.461	5
90.461	106.186	6
106.186	128.946	7
128.946	139.944	8
139.944	160.763	9
160.763	178.953	10
178.953	192.863	11
192.863	214.922	12
214.922	240.373	13
240.373	256.710	14
256.710	270.294	15
270.294	280.704	16
280.704	303.942	17
303.942	315.241	18
315.241	341.312	19
341.312	346.312	20
