\id 2CO
\c 1
\level verse
6.151	16.415	1
16.415	23.937	2
23.937	32.147	3
32.147	44.051	4
44.051	52.430	5
52.430	68.900	6
68.900	80.778	7
80.778	98.349	8
98.349	110.432	9
110.432	120.156	10
120.156	134.096	11
134.096	154.104	12
154.104	160.225	13
160.225	172.729	14
172.729	180.349	15
180.349	191.439	16
191.439	202.493	17
202.493	212.010	18
212.010	222.966	19
222.966	234.313	20
234.313	242.261	21
242.261	254.079	22
254.079	262.329	23
262.329	267.329	24
