\id JOB
\c 11
\level verse
8.468	13.728	1
13.728	22.348	2
22.348	33.618	3
33.618	42.903	4
42.903	52.448	5
52.448	69.595	6
69.595	80.380	7
80.380	92.230	8
92.230	99.550	9
99.550	112.260	10
112.260	123.760	11
123.760	133.450	12
133.450	144.590	13
144.590	154.760	14
154.760	166.299	15
166.299	175.160	16
175.160	185.370	17
185.370	195.394	18
195.394	206.548	19
206.548	211.548	20
