\id ISA
\c 60
\level verse
9.033	20.165	1
20.165	37.168	2
37.168	46.509	3
46.509	64.748	4
64.748	82.988	5
82.988	104.388	6
104.388	125.149	7
125.149	133.979	8
133.979	165.419	9
165.419	185.042	10
185.042	210.624	11
210.624	222.015	12
222.015	240.879	13
240.879	261.583	14
261.583	279.055	15
279.055	298.523	16
298.523	322.252	17
322.252	344.747	18
344.747	365.566	19
365.566	382.675	20
382.675	404.722	21
404.722	409.722	22
