\id 1KI
\c 19
\level verse
9.187	22.457	1
22.457	40.459	2
40.459	53.229	3
53.229	81.747	4
81.747	94.375	5
94.375	110.558	6
110.558	120.882	7
120.882	137.279	8
137.279	153.410	9
153.410	182.637	10
182.637	216.447	11
216.447	229.867	12
229.867	248.446	13
248.446	280.879	14
280.879	295.743	15
295.743	312.160	16
312.160	324.765	17
324.765	341.336	18
341.336	366.954	19
366.954	392.916	20
392.916	397.916	21
