\id JOS
\c 5
\level verse
5.146	38.398	1
38.398	48.175	2
48.175	59.309	3
59.309	73.776	4
73.776	89.002	5
89.002	121.270	6
121.270	136.166	7
136.166	144.883	8
144.883	158.023	9
158.023	169.503	10
169.503	180.123	11
180.123	196.703	12
196.703	217.713	13
217.713	235.014	14
235.014	240.014	15
