\id JOB
\c 24
\level verse
5.940	19.198	1
19.198	30.306	2
30.306	40.127	3
40.127	51.964	4
51.964	67.815	5
67.815	78.774	6
78.774	91.004	7
91.004	102.034	8
102.034	113.764	9
113.764	126.825	10
126.825	143.613	11
143.613	159.501	12
159.501	170.858	13
170.858	185.896	14
185.896	199.976	15
199.976	213.336	16
213.336	225.636	17
225.636	241.544	18
241.544	250.934	19
250.934	266.786	20
266.786	277.233	21
277.233	289.863	22
289.863	302.165	23
302.165	322.622	24
322.622	327.622	25
