\id REV
\c 5
\level verse
7.189	17.930	1
17.930	28.099	2
28.099	36.548	3
36.548	42.819	4
42.819	56.859	5
56.859	76.119	6
76.119	81.395	7
81.395	97.210	8
97.210	115.059	9
115.059	123.489	10
123.489	133.929	11
133.929	145.186	12
145.186	161.687	13
161.687	166.687	14
