\id 1SA
\c 22
\level verse
10.020	26.341	1
26.341	43.849	2
43.849	62.411	3
62.411	75.999	4
75.999	95.166	5
95.166	116.814	6
116.814	141.172	7
141.172	171.339	8
171.339	185.491	9
185.491	197.241	10
197.241	214.821	11
214.821	222.601	12
222.601	246.222	13
246.222	264.460	14
264.460	289.636	15
289.636	298.445	16
298.445	327.960	17
327.960	346.340	18
346.340	363.767	19
363.767	373.004	20
373.004	382.185	21
382.185	399.665	22
399.665	404.665	23
