\id MAT
\c 3
\level verse
8.620	14.800	1
14.800	19.015	2
19.015	30.579	3
30.579	40.481	4
40.481	46.561	5
46.561	52.371	6
52.371	66.111	7
66.111	68.161	8
68.161	78.938	9
78.938	86.934	10
86.934	101.864	11
101.864	116.456	12
116.456	122.357	13
122.357	131.523	14
131.523	140.099	15
140.099	153.971	16
153.971	158.971	17
