\id NUM
\c 17
\level verse
7.879	10.284	1
10.284	23.413	2
23.413	33.287	3
33.287	41.057	4
41.057	52.433	5
52.433	67.544	6
67.544	73.493	7
73.493	88.699	8
88.699	101.614	9
101.614	120.204	10
120.204	124.029	11
124.029	130.586	12
130.586	135.586	13
