\id PSA
\c 86
\level verse
9.298	20.264	1
20.264	34.553	2
34.553	42.083	3
42.083	50.138	4
50.138	61.320	5
61.320	69.393	6
69.393	78.299	7
78.299	89.654	8
89.654	102.923	9
102.923	112.293	10
112.293	128.953	11
128.953	140.876	12
140.876	151.966	13
151.966	168.670	14
168.670	180.583	15
180.583	196.482	16
196.482	201.482	17
