\id 1CO
\c 13
\level verse
6.158	16.848	1
16.848	30.588	2
30.588	42.863	3
42.863	50.784	4
50.784	58.250	5
58.250	62.348	6
62.348	69.147	7
69.147	79.777	8
79.777	84.869	9
84.869	89.005	10
89.005	101.256	11
101.256	114.495	12
114.495	119.495	13
