\id 2KI
\c 24
\level verse
6.182	25.662	1
25.662	44.943	2
44.943	61.803	3
61.803	80.153	4
80.153	95.159	5
95.159	104.418	6
104.418	124.918	7
124.918	141.714	8
141.714	149.393	9
149.393	159.484	10
159.484	168.422	11
168.422	191.730	12
191.730	211.791	13
211.791	232.720	14
232.720	251.299	15
251.299	268.129	16
268.129	284.879	17
284.879	301.349	18
301.349	311.097	19
311.097	316.097	20
