\id 1CH
\c 5
\level verse
7.929	40.858	1
40.858	54.436	2
54.436	63.726	3
63.726	73.496	4
73.496	81.357	5
81.357	95.766	6
95.766	108.996	7
108.996	125.482	8
125.482	143.590	9
143.590	168.838	10
168.838	179.155	11
179.155	190.133	12
190.133	207.143	13
207.143	233.763	14
233.763	241.853	15
241.853	255.992	16
255.992	271.162	17
271.162	296.410	18
296.410	305.310	19
305.310	335.545	20
335.545	353.993	21
353.993	373.493	22
373.493	391.793	23
391.793	415.409	24
415.409	436.286	25
436.286	441.286	26
