\id JHN
\c 21
\level verse
7.817	15.575	1
15.575	24.804	2
24.804	38.455	3
38.455	46.275	4
46.275	54.478	5
54.478	66.573	6
66.573	81.693	7
81.693	90.539	8
90.539	97.369	9
97.369	102.932	10
102.932	116.206	11
116.206	126.659	12
126.659	132.182	13
132.182	142.123	14
142.123	160.533	15
160.533	175.309	16
175.309	196.013	17
196.013	215.287	18
215.287	226.109	19
226.109	242.023	20
242.023	247.543	21
247.543	258.995	22
258.995	277.581	23
277.581	284.681	24
284.681	289.681	25
