\id PSA
\c 88
\level verse
19.068	28.767	1
28.767	36.515	2
36.515	44.464	3
44.464	53.510	4
53.510	70.113	5
70.113	79.605	6
79.605	89.094	7
89.094	104.921	8
104.921	116.859	9
116.859	127.890	10
127.890	136.229	11
136.229	147.561	12
147.561	157.610	13
157.610	167.040	14
167.040	179.897	15
179.897	187.900	16
187.900	197.637	17
197.637	202.637	18
