\id JOB
\c 32
\level verse
7.718	17.718	1
17.718	32.199	2
32.199	47.926	3
47.926	58.408	4
58.408	69.859	5
69.859	91.146	6
91.146	103.276	7
103.276	112.798	8
112.798	122.345	9
122.345	132.853	10
132.853	146.433	11
146.433	162.157	12
162.157	173.595	13
173.595	183.975	14
183.975	194.325	15
194.325	205.121	16
205.121	212.599	17
212.599	221.838	18
221.838	236.508	19
236.508	247.166	20
247.166	254.494	21
254.494	259.494	22
