\id 2CH
\c 31
\level verse
5.970	42.966	1
42.966	70.567	2
70.567	88.116	3
88.116	107.077	4
107.077	128.544	5
128.544	151.520	6
151.520	159.733	7
159.733	174.304	8
174.304	181.329	9
181.329	208.248	10
208.248	218.617	11
218.617	238.860	12
238.860	268.548	13
268.548	288.309	14
288.309	314.225	15
314.225	341.298	16
341.298	358.748	17
358.748	377.594	18
377.594	408.164	19
408.164	420.573	20
420.573	425.573	21
