\id JER
\c 43
\level verse
5.843	18.421	1
18.421	45.390	2
45.390	64.840	3
64.840	78.800	4
78.800	101.990	5
101.990	127.881	6
127.881	138.490	7
138.490	143.330	8
143.330	162.044	9
162.044	192.102	10
192.102	214.002	11
214.002	244.148	12
244.148	249.148	13
