\id EZK
\c 35
\level verse
10.757	14.758	1
14.758	24.117	2
24.117	38.537	3
38.537	50.897	4
50.897	71.177	5
71.177	91.897	6
91.897	103.967	7
103.967	119.362	8
119.362	134.350	9
134.350	148.900	10
148.900	172.756	11
172.756	195.362	12
195.362	207.600	13
207.600	217.114	14
217.114	222.114	15
