\id PSA
\c 72
\level verse
8.004	16.151	1
16.151	25.871	2
25.871	34.057	3
34.057	46.985	4
46.985	57.174	5
57.174	68.014	6
68.014	77.725	7
77.725	87.871	8
87.871	97.492	9
97.492	109.974	10
109.974	118.834	11
118.834	130.745	12
130.745	141.168	13
141.168	152.399	14
152.399	167.491	15
167.491	184.481	16
184.481	200.742	17
200.742	210.121	18
210.121	222.356	19
222.356	227.356	20
