\id NUM
\c 30
\level verse
6.818	12.967	1
12.967	30.078	2
30.078	38.967	3
38.967	47.199	4
47.199	64.155	5
64.155	72.158	6
72.158	82.399	7
82.399	97.792	8
97.792	106.573	9
106.573	113.560	10
113.560	127.909	11
127.909	146.455	12
146.455	158.320	13
158.320	179.381	14
179.381	191.718	15
191.718	196.718	16
