\id NUM
\c 12
\level verse
8.468	18.715	1
18.715	29.942	2
29.942	36.443	3
36.443	49.038	4
49.038	64.583	5
64.583	79.741	6
79.741	87.195	7
87.195	103.748	8
103.748	110.068	9
110.068	123.307	10
123.307	133.656	11
133.656	140.990	12
140.990	148.498	13
148.498	164.938	14
164.938	176.227	15
176.227	181.227	16
