\id REV
\c 22
\level verse
6.934	16.014	1
16.014	30.083	2
30.083	39.952	3
39.952	45.382	4
45.382	61.152	5
61.152	76.913	6
76.913	83.302	7
83.302	95.472	8
95.472	108.912	9
108.912	117.232	10
117.232	133.149	11
133.149	140.448	12
140.448	145.156	13
145.156	153.052	14
153.052	164.761	15
164.761	175.068	16
175.068	188.109	17
188.109	201.841	18
201.841	213.777	19
213.777	221.533	20
221.533	226.533	21
