\id 2CO
\c 10
\level verse
7.461	19.017	1
19.017	28.861	2
28.861	34.733	3
34.733	43.776	4
43.776	54.905	5
54.905	61.773	6
61.773	72.542	7
72.542	85.788	8
85.788	91.289	9
91.289	101.247	10
101.247	110.507	11
110.507	124.712	12
124.712	135.886	13
135.886	144.167	14
144.167	157.546	15
157.546	167.586	16
167.586	170.654	17
170.654	175.654	18
