\id PSA
\c 74
\level verse
8.290	20.959	1
20.959	41.681	2
41.681	54.371	3
54.371	68.897	4
68.897	77.120	5
77.120	85.073	6
85.073	95.138	7
95.138	110.196	8
110.196	125.086	9
125.086	137.676	10
137.676	148.335	11
148.335	157.709	12
157.709	169.474	13
169.474	180.444	14
180.444	191.344	15
191.344	200.740	16
200.740	211.828	17
211.828	223.272	18
223.272	235.052	19
235.052	243.502	20
243.502	254.616	21
254.616	267.925	22
267.925	272.925	23
