\id ISA
\c 8
\level verse
9.641	22.870	1
22.870	35.373	2
35.373	51.656	3
51.656	67.797	4
67.797	71.012	5
71.012	83.811	6
83.811	110.941	7
110.941	131.421	8
131.421	154.162	9
154.162	169.337	10
169.337	184.531	11
184.531	203.228	12
203.228	218.399	13
218.399	251.000	14
251.000	262.428	15
262.428	271.934	16
271.934	286.388	17
286.388	307.332	18
307.332	328.431	19
328.431	340.897	20
340.897	362.021	21
362.021	367.021	22
