\id 2CH
\c 16
\level verse
8.352	28.882	1
28.882	46.172	2
46.172	71.621	3
71.621	92.879	4
92.879	101.199	5
101.199	120.939	6
120.939	143.000	7
143.000	164.417	8
164.417	185.956	9
185.956	200.393	10
200.393	212.024	11
212.024	232.944	12
232.944	241.803	13
241.803	246.803	14
