\id JER
\c 12
\level verse
8.738	30.648	1
30.648	48.911	2
48.911	71.689	3
71.689	99.638	4
99.638	118.499	5
118.499	139.248	6
139.248	155.935	7
155.935	170.523	8
170.523	193.583	9
193.583	209.433	10
209.433	223.133	11
223.133	242.864	12
242.864	263.043	13
263.043	285.513	14
285.513	303.603	15
303.603	330.702	16
330.702	335.702	17
