\id NEH
\c 6
\level verse
8.636	30.672	1
30.672	44.830	2
44.830	61.417	3
61.417	71.277	4
71.277	87.337	5
87.337	116.374	6
116.374	135.761	7
135.761	146.610	8
146.610	164.718	9
164.718	188.299	10
188.299	201.874	11
201.874	217.283	12
217.283	231.794	13
231.794	252.184	14
252.184	263.874	15
263.874	281.414	16
281.414	295.430	17
295.430	314.980	18
314.980	319.980	19
