\id DEU
\c 24
\level verse
5.178	18.607	1
18.607	24.599	2
24.599	34.842	3
34.842	55.867	4
55.867	75.296	5
75.296	89.267	6
89.267	106.885	7
106.885	120.554	8
120.554	129.715	9
129.715	140.510	10
140.510	149.513	11
149.513	158.815	12
158.815	176.475	13
176.475	188.924	14
188.924	208.558	15
208.558	220.639	16
220.639	228.846	17
228.846	241.877	18
241.877	261.105	19
261.105	277.983	20
277.983	292.223	21
292.223	297.223	22
