\id 1CH
\c 28
\level verse
10.387	45.298	1
45.298	71.348	2
71.348	85.178	3
85.178	111.437	4
111.437	127.458	5
127.458	146.168	6
146.168	162.670	7
162.670	200.473	8
200.473	236.850	9
236.850	250.777	10
250.777	270.617	11
270.617	294.977	12
294.977	312.667	13
312.667	326.147	14
326.147	347.065	15
347.065	358.284	16
358.284	373.455	17
373.455	397.604	18
397.604	414.586	19
414.586	443.164	20
443.164	448.164	21
