\id HEB
\c 8
\level verse
7.998	17.718	1
17.718	26.768	2
26.768	36.878	3
36.878	46.198	4
46.198	65.078	5
65.078	78.818	6
78.818	84.330	7
84.330	96.940	8
96.940	114.095	9
114.095	128.743	10
128.743	140.170	11
140.170	145.794	12
145.794	150.794	13
