\id ISA
\c 55
\level verse
9.648	26.330	1
26.330	51.239	2
51.239	69.466	3
69.466	81.455	4
81.455	106.241	5
106.241	116.384	6
116.384	138.126	7
138.126	149.575	8
149.575	166.231	9
166.231	186.582	10
186.582	208.307	11
208.307	225.696	12
225.696	230.696	13
