\id EZK
\c 4
\level verse
9.318	20.297	1
20.297	40.828	2
40.828	66.397	3
66.397	86.087	4
86.087	106.486	5
106.486	125.209	6
125.209	136.438	7
136.438	150.282	8
150.282	172.264	9
172.264	182.607	10
182.607	190.943	11
190.943	207.091	12
207.091	220.721	13
220.721	248.580	14
248.580	260.381	15
260.381	280.696	16
280.696	285.696	17
