\id ISA
\c 45
\level verse
6.596	33.062	1
33.062	50.271	2
50.271	72.391	3
72.391	93.001	4
93.001	111.781	5
111.781	126.561	6
126.561	141.191	7
141.191	163.811	8
163.811	190.541	9
190.541	205.022	10
205.022	225.462	11
225.462	243.709	12
243.709	271.797	13
271.797	310.097	14
310.097	320.627	15
320.627	332.708	16
332.708	347.847	17
347.847	383.857	18
383.857	403.597	19
403.597	423.566	20
423.566	457.844	21
457.844	470.911	22
470.911	491.394	23
491.394	509.125	24
509.125	514.125	25
