\id GEN
\c 3
\level verse
6.349	24.000	1
24.000	30.528	2
30.528	42.771	3
42.771	47.391	4
47.391	58.728	5
58.728	77.215	6
77.215	89.720	7
89.720	104.405	8
104.405	109.293	9
109.293	117.853	10
117.853	126.496	11
126.496	135.119	12
135.119	145.738	13
145.738	164.577	14
164.577	177.490	15
177.490	193.263	16
193.263	212.773	17
212.773	220.959	18
220.959	237.895	19
237.895	244.847	20
244.847	251.735	21
251.735	268.723	22
268.723	279.828	23
279.828	284.828	24
