\id GEN
\c 33
\level verse
7.868	21.198	1
21.198	35.938	2
35.938	44.720	3
44.720	54.231	4
54.231	72.236	5
72.236	78.609	6
78.609	87.961	7
87.961	100.852	8
100.852	108.005	9
108.005	127.670	10
127.670	140.343	11
140.343	145.907	12
145.907	160.151	13
160.151	175.777	14
175.777	188.666	15
188.666	193.675	16
193.675	204.939	17
204.939	213.502	18
213.502	224.000	19
224.000	229.000	20
