\id AMO
\c 8
\level verse
6.856	11.725	1
11.725	27.915	2
27.915	38.350	3
38.350	44.953	4
44.953	62.177	5
62.177	70.386	6
70.386	78.764	7
78.764	90.716	8
90.716	101.155	9
101.155	123.503	10
123.503	136.720	11
136.720	149.170	12
149.170	155.960	13
155.960	160.960	14
