\id PRO
\c 18
\level verse
5.517	14.486	1
14.486	21.780	2
21.780	29.153	3
29.153	39.921	4
39.921	47.759	5
47.759	55.287	6
55.287	64.672	7
64.672	72.519	8
72.519	78.869	9
78.869	87.668	10
87.668	97.645	11
97.645	107.138	12
107.138	113.978	13
113.978	123.068	14
123.068	130.836	15
130.836	140.664	16
140.664	148.774	17
148.774	156.154	18
156.154	168.414	19
168.414	176.634	20
176.634	184.651	21
184.651	192.634	22
192.634	200.030	23
200.030	205.030	24
