\id JOB
\c 4
\level verse
8.922	13.842	1
13.842	24.887	2
24.887	34.179	3
34.179	44.560	4
44.560	60.521	5
60.521	72.501	6
72.501	82.921	7
82.921	92.390	8
92.390	101.988	9
101.988	112.258	10
112.258	121.556	11
121.556	129.860	12
129.860	136.807	13
136.807	144.563	14
144.563	152.387	15
152.387	168.555	16
168.555	180.415	17
180.415	192.003	18
192.003	207.415	19
207.415	219.427	20
219.427	224.427	21
