\id GEN
\c 15
\level verse
7.533	18.318	1
18.318	31.484	2
31.484	41.322	3
41.322	52.487	4
52.487	66.353	5
66.353	73.091	6
73.091	83.824	7
83.824	91.595	8
91.595	104.214	9
104.214	118.894	10
118.894	126.021	11
126.021	134.128	12
134.128	149.833	13
149.833	161.200	14
161.200	169.540	15
169.540	178.916	16
178.916	191.324	17
191.324	204.869	18
204.869	209.022	19
209.022	212.677	20
212.677	217.677	21
