\id JER
\c 41
\level verse
6.359	31.957	1
31.957	54.037	2
54.037	64.901	3
64.901	72.286	4
72.286	92.244	5
92.244	106.475	6
106.475	122.755	7
122.755	144.453	8
144.453	171.123	9
171.123	201.454	10
201.454	216.693	11
216.693	232.943	12
232.943	247.542	13
247.542	258.070	14
258.070	273.236	15
273.236	312.918	16
312.918	324.467	17
324.467	329.467	18
