\id PSA
\c 144
\level verse
8.929	20.069	1
20.069	37.859	2
37.859	50.549	3
50.549	60.204	4
60.204	72.595	5
72.595	84.949	6
84.949	97.881	7
97.881	104.593	8
104.593	116.564	9
116.564	128.637	10
128.637	141.029	11
141.029	156.902	12
156.902	170.552	13
170.552	185.785	14
185.785	190.785	15
