\id PSA
\c 51
\level verse
18.916	30.777	1
30.777	39.007	2
39.007	46.568	3
46.568	68.210	4
68.210	77.897	5
77.897	88.287	6
88.287	98.646	7
98.646	109.422	8
109.422	118.047	9
118.047	128.856	10
128.856	138.476	11
138.476	147.117	12
147.117	156.416	13
156.416	167.802	14
167.802	176.588	15
176.588	187.298	16
187.298	199.968	17
199.968	208.106	18
208.106	213.106	19
