\id PSA
\c 83
\level verse
9.210	20.649	1
20.649	31.740	2
31.740	46.183	3
46.183	57.418	4
57.418	66.266	5
66.266	72.748	6
72.748	80.890	7
80.890	88.292	8
88.292	100.413	9
100.413	106.964	10
106.964	118.204	11
118.204	123.514	12
123.514	132.968	13
132.968	139.987	14
139.987	149.967	15
149.967	159.477	16
159.477	167.206	17
167.206	172.206	18
