\id JOB
\c 40
\level verse
5.899	9.507	1
9.507	22.622	2
22.622	26.620	3
26.620	36.128	4
36.128	48.374	5
48.374	54.517	6
54.517	65.536	7
65.536	75.375	8
75.375	83.974	9
83.974	94.274	10
94.274	102.412	11
102.412	112.618	12
112.618	121.453	13
121.453	131.081	14
131.081	140.000	15
140.000	148.524	16
148.524	158.935	17
158.935	170.000	18
170.000	182.207	19
182.207	192.351	20
192.351	200.000	21
200.000	212.474	22
212.474	227.497	23
227.497	232.497	24
