\id JOB
\c 8
\level verse
8.188	12.525	1
12.525	21.583	2
21.583	31.385	3
31.385	42.622	4
42.622	54.190	5
54.190	68.799	6
68.799	77.422	7
77.422	87.786	8
87.786	98.971	9
98.971	111.621	10
111.621	122.103	11
122.103	130.671	12
130.671	141.771	13
141.771	152.710	14
152.710	163.458	15
163.458	173.658	16
173.658	183.088	17
183.088	194.554	18
194.554	205.284	19
205.284	216.843	20
216.843	228.321	21
228.321	233.321	22
