\id ACT
\c 6
\level verse
6.650	21.690	1
21.690	31.476	2
31.476	43.605	3
43.605	48.837	4
48.837	67.918	5
67.918	78.288	6
78.288	91.755	7
91.755	100.413	8
100.413	116.692	9
116.692	123.403	10
123.403	137.227	11
137.227	147.211	12
147.211	155.750	13
155.750	167.749	14
167.749	172.749	15
