\id LEV
\c 3
\level verse
6.186	17.766	1
17.766	31.757	2
31.757	41.736	3
41.736	51.186	4
51.186	62.753	5
62.753	72.616	6
72.616	78.983	7
78.983	89.595	8
89.595	104.623	9
104.623	113.493	10
113.493	119.200	11
119.200	124.702	12
124.702	135.878	13
135.878	147.273	14
147.273	155.827	15
155.827	164.111	16
164.111	169.111	17
