\id 1CH
\c 18
\level verse
8.168	25.806	1
25.806	35.643	2
35.643	49.648	3
49.648	66.905	4
66.905	79.645	5
79.645	94.815	6
94.815	104.443	7
104.443	125.145	8
125.145	135.896	9
135.896	162.339	10
162.339	182.347	11
182.347	190.894	12
190.894	207.811	13
207.811	219.941	14
219.941	230.429	15
230.429	240.649	16
240.649	245.649	17
