\id ECC
\c 2
\level verse
8.484	22.548	1
22.548	29.174	2
29.174	50.128	3
50.128	58.144	4
58.144	66.373	5
66.373	72.610	6
72.610	89.948	7
89.948	106.614	8
106.614	116.243	9
116.243	138.322	10
138.322	164.150	11
164.150	181.656	12
181.656	191.443	13
191.443	204.001	14
204.001	222.146	15
222.146	241.480	16
241.480	255.740	17
255.740	267.770	18
267.770	288.032	19
288.032	295.020	20
295.020	315.285	21
315.285	324.720	22
324.720	335.207	23
335.207	349.132	24
349.132	354.578	25
354.578	359.578	26
