\id PSA
\c 50
\level verse
7.992	19.532	1
19.532	26.657	2
26.657	39.817	3
39.817	49.488	4
49.488	58.057	5
58.057	66.037	6
66.037	80.248	7
80.248	90.953	8
90.953	99.337	9
99.337	108.156	10
108.156	115.796	11
115.796	127.730	12
127.730	134.292	13
134.292	143.346	14
143.346	151.683	15
151.683	164.163	16
164.163	171.344	17
171.344	179.684	18
179.684	189.173	19
189.173	199.284	20
199.284	215.097	21
215.097	228.733	22
228.733	233.733	23
