\id REV
\c 1
\level verse
6.627	17.760	1
17.760	25.951	2
25.951	41.506	3
41.506	58.086	4
58.086	74.364	5
74.364	85.209	6
85.209	99.805	7
99.805	111.715	8
111.715	124.985	9
124.985	131.675	10
131.675	146.601	11
146.601	154.793	12
154.793	164.842	13
164.842	173.248	14
173.248	183.397	15
183.397	197.838	16
197.838	209.377	17
209.377	219.985	18
219.985	226.623	19
226.623	231.623	20
