\id JDG
\c 10
\level verse
6.598	24.516	1
24.516	34.747	2
34.747	42.456	3
42.456	61.197	4
61.197	67.377	5
67.377	91.906	6
91.906	101.465	7
101.465	118.846	8
118.846	132.538	9
132.538	145.936	10
145.936	153.845	11
153.845	170.046	12
170.046	180.655	13
180.655	191.250	14
191.250	204.670	15
204.670	218.828	16
218.828	232.333	17
232.333	237.333	18
