\id PRO
\c 13
\level verse
5.409	15.629	1
15.629	26.045	2
26.045	34.835	3
34.835	45.275	4
45.275	54.504	5
54.504	62.523	6
62.523	76.322	7
76.322	86.075	8
86.075	92.810	9
92.810	100.323	10
100.323	107.759	11
107.759	115.498	12
115.498	124.332	13
124.332	132.384	14
132.384	140.903	15
140.903	149.675	16
149.675	157.152	17
157.152	167.163	18
167.163	176.647	19
176.647	185.308	20
185.308	192.482	21
192.482	204.922	22
204.922	213.523	23
213.523	224.853	24
224.853	229.853	25
