\id 2SA
\c 6
\level verse
9.217	21.475	1
21.475	42.084	2
42.084	60.385	3
60.385	73.051	4
73.051	92.163	5
92.163	106.503	6
106.503	121.001	7
121.001	134.356	8
134.356	142.166	9
142.166	155.076	10
155.076	168.426	11
168.426	192.522	12
192.522	204.440	13
204.440	212.780	14
212.780	222.340	15
222.340	244.080	16
244.080	260.270	17
260.270	270.300	18
270.300	290.558	19
290.558	313.413	20
313.413	334.738	21
334.738	346.633	22
346.633	351.633	23
