\id JOS
\c 17
\level verse
5.340	23.995	1
23.995	47.114	2
47.114	66.752	3
66.752	94.029	4
94.029	103.624	5
103.624	117.012	6
117.012	133.895	7
133.895	143.442	8
143.442	163.368	9
163.368	180.760	10
180.760	200.280	11
200.280	211.765	12
211.765	225.137	13
225.137	243.807	14
243.807	260.297	15
260.297	278.000	16
278.000	292.048	17
292.048	297.048	18
