\id AMO
\c 3
\level verse
8.886	21.207	1
21.207	32.304	2
32.304	37.742	3
37.742	47.266	4
47.266	58.853	5
58.853	70.459	6
70.459	79.554	7
79.554	88.816	8
88.816	104.183	9
104.183	118.621	10
118.621	133.042	11
133.042	154.096	12
154.096	163.576	13
163.576	177.762	14
177.762	182.762	15
