\id 2CH
\c 4
\level verse
7.798	16.718	1
16.718	32.496	2
32.496	48.089	3
48.089	73.690	4
73.690	86.648	5
86.648	107.176	6
107.176	119.586	7
119.586	131.803	8
131.803	142.373	9
142.373	148.782	10
148.782	164.740	11
164.740	182.341	12
182.341	197.976	13
197.976	202.213	14
202.213	207.204	15
207.204	227.002	16
227.002	237.661	17
237.661	246.590	18
246.590	259.240	19
259.240	267.470	20
267.470	275.117	21
275.117	280.117	22
