\id PSA
\c 91
\level verse
5.747	14.950	1
14.950	25.762	2
25.762	33.586	3
33.586	48.175	4
48.175	56.405	5
56.405	66.139	6
66.139	76.413	7
76.413	83.809	8
83.809	95.239	9
95.239	101.831	10
101.831	111.543	11
111.543	119.509	12
119.509	130.100	13
130.100	142.630	14
142.630	157.122	15
157.122	162.122	16
