\id GEN
\c 13
\level verse
7.615	18.395	1
18.395	25.595	2
25.595	36.880	3
36.880	44.415	4
44.415	52.074	5
52.074	64.039	6
64.039	76.490	7
76.490	88.999	8
88.999	101.576	9
101.576	119.012	10
119.012	130.830	11
130.830	142.488	12
142.488	148.767	13
148.767	159.897	14
159.897	166.567	15
166.567	176.264	16
176.264	183.746	17
183.746	188.746	18
