\id HEB
\c 13
\level verse
7.046	11.149	1
11.149	19.250	2
19.250	27.966	3
27.966	36.945	4
36.945	52.536	5
52.536	61.588	6
61.588	71.321	7
71.321	75.484	8
75.484	88.352	9
88.352	93.795	10
93.795	103.108	11
103.108	110.517	12
110.517	116.733	13
116.733	123.008	14
123.008	131.296	15
131.296	139.005	16
139.005	159.823	17
159.823	168.353	18
168.353	177.277	19
177.277	186.314	20
186.314	200.133	21
200.133	209.393	22
209.393	219.263	23
219.263	228.243	24
228.243	233.243	25
