\id ISA
\c 48
\level verse
8.904	34.072	1
34.072	48.022	2
48.022	64.382	3
64.382	76.932	4
76.932	100.262	5
100.262	119.475	6
119.475	139.091	7
139.091	158.481	8
158.481	176.835	9
176.835	188.362	10
188.362	205.541	11
205.541	216.846	12
216.846	234.864	13
234.864	258.223	14
258.223	270.983	15
270.983	291.906	16
291.906	315.759	17
315.759	331.817	18
331.817	351.165	19
351.165	376.933	20
376.933	397.276	21
397.276	402.276	22
