\id PSA
\c 25
\level verse
7.718	14.239	1
14.239	23.667	2
23.667	35.657	3
35.657	44.527	4
44.527	60.227	5
60.227	70.630	6
70.630	85.084	7
85.084	94.101	8
94.101	104.106	9
104.106	114.539	10
114.539	125.044	11
125.044	135.604	12
135.604	146.514	13
146.514	156.344	14
156.344	165.904	15
165.904	175.320	16
175.320	183.633	17
183.633	193.118	18
193.118	202.828	19
202.828	213.585	20
213.585	221.998	21
221.998	226.998	22
