\id 2KI
\c 13
\level verse
9.844	27.795	1
27.795	42.694	2
42.694	59.768	3
59.768	77.799	4
77.799	97.714	5
97.714	117.555	6
117.555	142.042	7
142.042	158.568	8
158.568	175.846	9
175.846	192.560	10
192.560	212.452	11
212.452	235.412	12
235.412	252.186	13
252.186	277.300	14
277.300	285.029	15
285.029	297.335	16
297.335	320.590	17
320.590	333.477	18
333.477	357.045	19
357.045	370.190	20
370.190	399.753	21
399.753	408.037	22
408.037	438.299	23
438.299	446.565	24
446.565	451.565	25
