\id 1CO
\c 3
\level verse
8.124	20.915	1
20.915	30.498	2
30.498	43.096	3
43.096	51.736	4
51.736	63.374	5
63.374	69.311	6
69.311	76.797	7
76.797	85.000	8
85.000	91.900	9
91.900	105.578	10
105.578	113.255	11
113.255	122.157	12
122.157	135.373	13
135.373	140.874	14
140.874	150.473	15
150.473	157.364	16
157.364	169.499	17
169.499	180.809	18
180.809	190.657	19
190.657	195.527	20
195.527	201.497	21
201.497	211.368	22
211.368	216.368	23
