\id 2KI
\c 20
\level verse
8.791	30.612	1
30.612	38.389	2
38.389	58.378	3
58.378	65.887	4
65.887	91.218	5
91.218	110.458	6
110.458	124.976	7
124.976	141.156	8
141.156	155.036	9
155.036	164.693	10
164.693	182.979	11
182.979	200.649	12
200.649	230.788	13
230.788	247.996	14
247.996	265.772	15
265.772	271.812	16
271.812	291.407	17
291.407	305.604	18
305.604	318.984	19
318.984	339.954	20
339.954	344.954	21
