\id ISA
\c 24
\level verse
10.337	29.625	1
29.625	64.033	2
64.033	76.983	3
76.983	90.424	4
90.424	108.193	5
108.193	128.773	6
128.773	139.597	7
139.597	151.079	8
151.079	160.327	9
160.327	168.827	10
168.827	182.551	11
182.551	192.067	12
192.067	207.239	13
207.239	221.527	14
221.527	233.726	15
233.726	257.869	16
257.869	266.909	17
266.909	285.659	18
285.659	295.274	19
295.274	312.179	20
312.179	323.616	21
323.616	340.274	22
340.274	345.274	23
