\id ISA
\c 51
\level verse
10.700	27.348	1
27.348	44.158	2
44.158	74.456	3
74.456	90.248	4
90.248	111.232	5
111.232	138.911	6
138.911	157.462	7
157.462	179.691	8
179.691	203.001	9
203.001	223.192	10
223.192	247.659	11
247.659	264.796	12
264.796	291.516	13
291.516	306.896	14
306.896	323.126	15
323.126	350.906	16
350.906	371.614	17
371.614	387.652	18
387.652	404.646	19
404.646	423.254	20
423.254	431.052	21
431.052	457.695	22
457.695	462.695	23
