\id PSA
\c 17
\level verse
8.659	21.947	1
21.947	31.701	2
31.701	52.522	3
52.522	66.766	4
66.766	74.396	5
74.396	87.827	6
87.827	103.545	7
103.545	113.315	8
113.315	124.495	9
124.495	135.035	10
135.035	146.894	11
146.894	159.721	12
159.721	173.894	13
173.894	207.458	14
207.458	212.458	15
