\id ISA
\c 23
\level verse
10.298	30.700	1
30.700	43.298	2
43.298	57.768	3
57.768	81.748	4
81.748	90.880	5
90.880	98.617	6
98.617	114.188	7
114.188	130.776	8
130.776	146.285	9
146.285	159.535	10
159.535	179.226	11
179.226	197.825	12
197.825	228.255	13
228.255	236.546	14
236.546	255.306	15
255.306	271.626	16
271.626	294.666	17
294.666	299.666	18
