\id JDG
\c 21
\level verse
9.851	21.919	1
21.919	34.869	2
34.869	47.829	3
47.829	55.896	4
55.896	75.665	5
75.665	89.636	6
89.636	104.658	7
104.658	121.551	8
121.551	131.237	9
131.237	145.232	10
145.232	156.751	11
156.751	172.364	12
172.364	182.266	13
182.266	198.164	14
198.164	208.334	15
208.334	220.835	16
220.835	231.155	17
231.155	245.874	18
245.874	260.191	19
260.191	269.475	20
269.475	290.183	21
290.183	322.242	22
322.242	346.856	23
346.856	358.082	24
358.082	363.082	25
