\id PSA
\c 116
\level verse
6.478	15.234	1
15.234	23.553	2
23.553	34.921	3
34.921	41.975	4
41.975	49.624	5
49.624	59.744	6
59.744	68.467	7
68.467	80.005	8
80.005	85.804	9
85.804	92.885	10
92.885	98.565	11
98.565	107.095	12
107.095	113.535	13
113.535	120.985	14
120.985	127.495	15
127.495	141.570	16
141.570	149.356	17
149.356	156.941	18
156.941	161.941	19
