\id JOB
\c 23
\level verse
8.220	11.556	1
11.556	21.964	2
21.964	33.191	3
33.191	42.214	4
42.214	54.384	5
54.384	65.223	6
65.223	81.583	7
81.583	92.112	8
92.112	106.662	9
106.662	118.179	10
118.179	129.750	11
129.750	144.916	12
144.916	156.145	13
156.145	168.265	14
168.265	181.312	15
181.312	191.692	16
191.692	196.692	17
