\id EZK
\c 19
\level verse
10.599	16.245	1
16.245	29.273	2
29.273	44.466	3
44.466	58.815	4
58.815	76.081	5
76.081	93.789	6
93.789	109.488	7
109.488	125.859	8
125.859	144.911	9
144.911	160.411	10
160.411	179.930	11
179.930	199.011	12
199.011	206.623	13
206.623	211.623	14
