\id DAN
\c 12
\level verse
7.997	34.926	1
34.926	51.655	2
51.655	68.675	3
68.675	86.576	4
86.576	102.236	5
102.236	118.146	6
118.146	156.782	7
156.782	171.586	8
171.586	185.812	9
185.812	205.336	10
205.336	218.603	11
218.603	230.190	12
230.190	235.190	13
