\id 2KI
\c 1
\level verse
10.659	17.797	1
17.797	45.406	2
45.406	67.297	3
67.297	81.057	4
81.057	89.839	5
89.839	125.827	6
125.827	135.425	7
135.425	148.926	8
148.926	171.516	9
171.516	195.908	10
195.908	213.272	11
213.272	235.232	12
235.232	263.417	13
263.417	280.200	14
280.200	294.004	15
294.004	320.845	16
320.845	345.765	17
345.765	350.765	18
