\id EZK
\c 26
\level verse
9.683	17.573	1
17.573	39.033	2
39.033	54.892	3
54.892	69.877	4
69.877	86.899	5
86.899	99.881	6
99.881	120.020	7
120.020	139.791	8
139.791	154.680	9
154.680	180.490	10
180.490	195.019	11
195.019	217.018	12
217.018	228.349	13
228.349	248.139	14
248.139	264.694	15
264.694	289.569	16
289.569	315.606	17
315.606	328.561	18
328.561	348.421	19
348.421	377.878	20
377.878	382.878	21
