\id EXO
\c 1
\level verse
8.601	16.453	1
16.453	21.244	2
21.244	25.048	3
25.048	30.622	4
30.622	37.139	5
37.139	43.039	6
43.039	51.822	7
51.822	57.412	8
57.412	65.284	9
65.284	82.978	10
82.978	98.949	11
98.949	111.009	12
111.009	116.865	13
116.865	133.417	14
133.417	140.426	15
140.426	153.200	16
153.200	163.891	17
163.891	173.935	18
173.935	189.151	19
189.151	198.940	20
198.940	205.638	21
205.638	210.638	22
