\id AMO
\c 9
\level verse
7.847	29.301	1
29.301	41.166	2
41.166	56.624	3
56.624	71.445	4
71.445	87.194	5
87.194	103.774	6
103.774	119.936	7
119.936	135.046	8
135.046	148.555	9
148.555	163.313	10
163.313	181.586	11
181.586	194.544	12
194.544	211.522	13
211.522	232.141	14
232.141	237.141	15
