\id EZK
\c 11
\level verse
9.854	34.792	1
34.792	47.352	2
47.352	62.542	3
62.542	70.862	4
70.862	92.922	5
92.922	104.859	6
104.859	122.137	7
122.137	132.457	8
132.457	145.785	9
145.785	158.824	10
158.824	173.658	11
173.658	196.057	12
196.057	221.541	13
221.541	224.932	14
224.932	252.002	15
252.002	277.067	16
277.067	301.022	17
301.022	312.482	18
312.482	331.251	19
331.251	348.642	20
348.642	367.625	21
367.625	380.823	22
380.823	391.624	23
391.624	411.018	24
411.018	416.018	25
