\id JER
\c 8
\level verse
5.950	24.660	1
24.660	59.856	2
59.856	78.905	3
78.905	95.694	4
95.694	112.326	5
112.326	137.176	6
137.176	158.972	7
158.972	176.688	8
176.688	193.896	9
193.896	218.966	10
218.966	232.410	11
232.410	260.798	12
260.798	285.408	13
285.408	314.807	14
314.807	328.378	15
328.378	352.398	16
352.398	368.648	17
368.648	376.094	18
376.094	401.594	19
401.594	412.881	20
412.881	425.703	21
425.703	430.703	22
