\id PSA
\c 115
\level verse
6.454	16.861	1
16.861	22.665	2
22.665	30.025	3
30.025	38.495	4
38.495	46.480	5
46.480	53.873	6
53.873	67.900	7
67.900	77.458	8
77.458	86.319	9
86.319	94.735	10
94.735	104.012	11
104.012	118.660	12
118.660	125.566	13
125.566	132.945	14
132.945	141.209	15
141.209	150.020	16
150.020	159.199	17
159.199	164.199	18
