\id PSA
\c 55
\level verse
12.529	20.039	1
20.039	29.145	2
29.145	43.648	3
43.648	50.877	4
50.877	58.108	5
58.108	68.877	6
68.877	75.847	7
75.847	85.388	8
85.388	99.408	9
99.408	111.800	10
111.800	121.938	11
121.938	135.187	12
135.187	143.328	13
143.328	155.787	14
155.787	169.017	15
169.017	176.227	16
176.227	185.733	17
185.733	198.687	18
198.687	218.220	19
218.220	227.805	20
227.805	242.356	21
242.356	253.545	22
253.545	258.545	23
