\id PSA
\c 103
\level verse
8.625	18.129	1
18.129	25.624	2
25.624	34.224	3
34.224	44.641	4
44.641	54.880	5
54.880	62.828	6
62.828	70.378	7
70.378	78.889	8
78.889	87.846	9
87.846	98.776	10
98.776	109.016	11
109.016	119.734	12
119.734	131.202	13
131.202	139.863	14
139.863	147.370	15
147.370	156.766	16
156.766	172.856	17
172.856	184.298	18
184.298	194.686	19
194.686	205.913	20
205.913	215.781	21
215.781	220.781	22
