\id EZK
\c 45
\level verse
11.030	35.294	1
35.294	49.434	2
49.434	65.813	3
65.813	90.069	4
90.069	113.437	5
113.437	135.456	6
135.456	172.935	7
172.935	194.494	8
194.494	225.364	9
225.364	232.854	10
232.854	250.455	11
250.455	261.864	12
261.864	278.630	13
278.630	297.325	14
297.325	323.287	15
323.287	333.024	16
333.024	368.059	17
368.059	381.423	18
381.423	401.749	19
401.749	419.520	20
419.520	435.667	21
435.667	447.906	22
447.906	467.726	23
467.726	488.846	24
488.846	493.846	25
