\id PRO
\c 5
\level verse
8.630	17.602	1
17.602	26.142	2
26.142	35.708	3
35.708	43.893	4
43.893	52.795	5
52.795	64.540	6
64.540	72.845	7
72.845	80.696	8
80.696	91.349	9
91.349	103.120	10
103.120	112.738	11
112.738	124.054	12
124.054	133.403	13
133.403	141.028	14
141.028	147.678	15
147.678	155.854	16
155.854	162.906	17
162.906	170.888	18
170.888	184.620	19
184.620	195.238	20
195.238	205.383	21
205.383	214.553	22
214.553	219.553	23
