\id PSA
\c 66
\level verse
11.086	16.460	1
16.460	23.035	2
23.035	36.275	3
36.275	47.418	4
47.418	56.566	5
56.566	69.066	6
69.066	84.844	7
84.844	95.855	8
95.855	104.271	9
104.271	113.929	10
113.929	122.229	11
122.229	137.229	12
137.229	147.027	13
147.027	157.625	14
157.625	170.445	15
170.445	182.714	16
182.714	191.185	17
191.185	199.585	18
199.585	208.021	19
208.021	213.021	20
