\id DEU
\c 27
\level verse
7.797	17.527	1
17.527	31.154	2
31.154	50.000	3
50.000	63.218	4
63.218	73.754	5
73.754	85.434	6
85.434	93.603	7
93.603	103.031	8
103.031	114.740	9
114.740	124.510	10
124.510	128.189	11
128.189	142.751	12
142.751	153.421	13
153.421	158.970	14
158.970	174.642	15
174.642	181.694	16
181.694	190.243	17
190.243	197.663	18
197.663	206.219	19
206.219	217.655	20
217.655	224.237	21
224.237	234.012	22
234.012	240.297	23
240.297	247.073	24
247.073	255.253	25
255.253	260.253	26
