\id PRO
\c 9
\level verse
8.653	15.848	1
15.848	24.844	2
24.844	33.733	3
33.733	40.998	4
40.998	46.498	5
46.498	54.127	6
54.127	63.689	7
63.689	75.198	8
75.198	86.134	9
86.134	94.271	10
94.271	102.561	11
102.561	113.125	12
113.125	119.896	13
119.896	126.033	14
126.033	132.527	15
132.527	139.892	16
139.892	145.804	17
145.804	150.804	18
