\id LEV
\c 17
\level verse
6.969	9.429	1
9.429	18.393	2
18.393	34.630	3
34.630	51.120	4
51.120	69.336	5
69.336	80.221	6
80.221	93.997	7
93.997	102.875	8
102.875	114.286	9
114.286	127.367	10
127.367	141.447	11
141.447	152.262	12
152.262	165.377	13
165.377	179.939	14
179.939	199.779	15
199.779	204.779	16
