\id PSA
\c 10
\level verse
5.447	14.615	1
14.615	26.175	2
26.175	38.273	3
38.273	49.831	4
49.831	64.061	5
64.061	79.334	6
79.334	91.830	7
91.830	108.586	8
108.586	126.217	9
126.217	137.018	10
137.018	152.038	11
152.038	162.386	12
162.386	174.564	13
174.564	195.464	14
195.464	210.882	15
210.882	221.032	16
221.032	234.587	17
234.587	239.587	18
