\id 2CH
\c 1
\level verse
8.826	25.707	1
25.707	43.910	2
43.910	56.989	3
56.989	72.710	4
72.710	90.882	5
90.882	101.680	6
101.680	113.784	7
113.784	127.212	8
127.212	143.866	9
143.866	157.603	10
157.603	181.679	11
181.679	198.054	12
198.054	209.668	13
209.668	225.708	14
225.708	239.183	15
239.183	253.478	16
253.478	258.478	17
