\id JOB
\c 29
\level verse
9.605	13.943	1
13.943	26.312	2
26.312	36.398	3
36.398	47.660	4
47.660	56.087	5
56.087	66.576	6
66.576	75.666	7
75.666	86.187	8
86.187	94.926	9
94.926	104.393	10
104.393	115.026	11
115.026	128.542	12
128.542	139.063	13
139.063	148.666	14
148.666	155.086	15
155.086	163.576	16
163.576	173.796	17
173.796	184.126	18
184.126	193.066	19
193.066	202.766	20
202.766	212.816	21
212.816	223.911	22
223.911	233.426	23
233.426	246.016	24
246.016	251.016	25
