\id 2KI
\c 11
\level verse
9.102	21.232	1
21.232	47.692	2
47.692	60.703	3
60.703	90.678	4
90.678	108.028	5
108.028	122.550	6
122.550	135.048	7
135.048	153.328	8
153.328	175.940	9
175.940	186.973	10
186.973	204.122	11
204.122	229.252	12
229.252	241.692	13
241.692	271.790	14
271.790	294.412	15
294.412	308.715	16
308.715	325.654	17
325.654	351.047	18
351.047	381.080	19
381.080	393.690	20
393.690	398.690	21
