\id SNG
\c 7
\level verse
5.329	18.279	1
18.279	31.458	2
31.458	38.125	3
38.125	55.644	4
55.644	69.863	5
69.863	77.161	6
77.161	85.141	7
85.141	100.778	8
100.778	115.028	9
115.028	120.745	10
120.745	128.743	11
128.743	144.053	12
144.053	149.053	13
