\id EXO
\c 2
\level verse
7.818	13.518	1
13.518	24.266	2
24.266	44.655	3
44.655	49.593	4
49.593	64.594	5
64.594	76.863	6
76.863	89.466	7
89.466	97.332	8
97.332	111.467	9
111.467	127.971	10
127.971	141.965	11
141.965	150.965	12
150.965	162.108	13
162.108	177.655	14
177.655	190.623	15
190.623	202.991	16
202.991	214.312	17
214.312	223.646	18
223.646	235.066	19
235.066	243.920	20
243.920	251.736	21
251.736	260.262	22
260.262	274.481	23
274.481	284.138	24
284.138	289.138	25
