\id ISA
\c 52
\level verse
6.478	24.504	1
24.504	39.322	2
39.322	49.594	3
49.594	65.672	4
65.672	89.522	5
89.522	105.901	6
105.901	124.024	7
124.024	144.275	8
144.275	164.976	9
164.976	180.927	10
180.927	197.217	11
197.217	219.615	12
219.615	232.945	13
232.945	246.045	14
246.045	251.045	15
