\id DAN
\c 1
\level verse
9.489	23.098	1
23.098	47.824	2
47.824	68.822	3
68.822	97.299	4
97.299	120.525	5
120.525	130.216	6
130.216	147.667	7
147.667	166.737	8
166.737	176.475	9
176.475	210.047	10
210.047	223.267	11
223.267	237.668	12
237.668	252.758	13
252.758	263.268	14
263.268	274.538	15
274.538	290.668	16
290.668	309.157	17
309.157	324.648	18
324.648	343.287	19
343.287	363.537	20
363.537	368.537	21
