\id JER
\c 14
\level verse
9.938	16.358	1
16.358	31.099	2
31.099	53.015	3
53.015	66.432	4
66.432	75.002	5
75.002	91.262	6
91.262	110.752	7
110.752	127.872	8
127.872	145.892	9
145.892	175.655	10
175.655	182.455	11
182.455	203.127	12
203.127	223.643	13
223.643	257.494	14
257.494	286.822	15
286.822	313.638	16
313.638	334.188	17
334.188	354.428	18
354.428	384.872	19
384.872	398.539	20
398.539	417.100	21
417.100	422.100	22
