\id ISA
\c 47
\level verse
9.276	25.270	1
25.270	38.166	2
38.166	50.593	3
50.593	59.782	4
59.782	70.922	5
70.922	94.872	6
94.872	109.120	7
109.120	129.968	8
129.968	151.170	9
151.170	174.426	10
174.426	197.633	11
197.633	215.803	12
215.803	238.711	13
238.711	261.590	14
261.590	266.590	15
