\id DEU
\c 23
\level verse
7.544	17.675	1
17.675	31.249	2
31.249	41.549	3
41.549	61.524	4
61.524	75.957	5
75.957	82.639	6
82.639	95.000	7
95.000	105.254	8
105.254	113.731	9
113.731	123.287	10
123.287	131.000	11
131.000	136.073	12
136.073	145.420	13
145.420	172.090	14
172.090	180.638	15
180.638	191.028	16
191.028	198.287	17
198.287	212.878	18
212.878	221.947	19
221.947	239.372	20
239.372	256.636	21
256.636	262.126	22
262.126	275.390	23
275.390	287.473	24
287.473	292.473	25
