\id PSA
\c 140
\level verse
8.930	18.471	1
18.471	26.153	2
26.153	36.519	3
36.519	50.469	4
50.469	63.642	5
63.642	73.579	6
73.579	82.881	7
82.881	91.450	8
91.450	103.508	9
103.508	117.986	10
117.986	126.476	11
126.476	138.524	12
138.524	143.524	13
