\id 1CO
\c 4
\level verse
7.967	13.928	1
13.928	17.172	2
17.172	26.881	3
26.881	33.790	4
33.790	50.811	5
50.811	70.721	6
70.721	84.109	7
84.109	98.664	8
98.664	117.170	9
117.170	127.931	10
127.931	137.074	11
137.074	146.146	12
146.146	156.875	13
156.875	164.656	14
164.656	175.333	15
175.333	179.660	16
179.660	198.815	17
198.815	203.753	18
203.753	215.947	19
215.947	220.599	20
220.599	225.599	21
