\id NEH
\c 8
\level verse
5.256	26.953	1
26.953	43.333	2
43.333	64.328	3
64.328	91.172	4
91.172	107.801	5
107.801	125.284	6
125.284	151.281	7
151.281	164.611	8
164.611	189.816	9
189.816	211.177	10
211.177	221.497	11
221.497	239.721	12
239.721	252.984	13
252.984	264.692	14
264.692	289.272	15
289.272	313.791	16
313.791	332.091	17
332.091	337.091	18
