\id JOB
\c 35
\level verse
5.368	7.867	1
7.867	18.827	2
18.827	29.793	3
29.793	37.370	4
37.370	46.578	5
46.578	60.238	6
60.238	72.139	7
72.139	84.097	8
84.097	96.229	9
96.229	106.751	10
106.751	119.543	11
119.543	127.868	12
127.868	137.553	13
137.553	153.963	14
153.963	166.463	15
166.463	171.463	16
