\id LEV
\c 24
\level verse
8.871	11.399	1
11.399	21.517	2
21.517	37.067	3
37.067	44.654	4
44.654	53.338	5
53.338	62.543	6
62.543	73.343	7
73.343	82.765	8
82.765	101.389	9
101.389	114.718	10
114.718	129.921	11
129.921	135.478	12
135.478	138.245	13
138.245	150.000	14
150.000	157.562	15
157.562	174.349	16
174.349	178.837	17
178.837	185.780	18
185.780	193.095	19
193.095	205.135	20
205.135	213.331	21
213.331	221.582	22
221.582	226.582	23
