\id HOS
\c 5
\level verse
7.949	29.298	1
29.298	37.240	2
37.240	50.559	3
50.559	63.898	4
63.898	78.871	5
78.871	94.505	6
94.505	110.805	7
110.805	121.435	8
121.435	131.945	9
131.945	142.899	10
142.899	153.745	11
153.745	162.046	12
162.046	181.678	13
181.678	200.785	14
200.785	205.785	15
