\id ISA
\c 9
\level verse
5.921	31.359	1
31.359	42.588	2
42.588	61.895	3
61.895	81.725	4
81.725	96.284	5
96.284	120.404	6
120.404	158.308	7
158.308	168.326	8
168.326	181.877	9
181.877	198.378	10
198.378	210.762	11
210.762	229.722	12
229.722	242.317	13
242.317	255.336	14
255.336	265.656	15
265.656	276.237	16
276.237	306.867	17
306.867	329.547	18
329.547	347.018	19
347.018	364.356	20
364.356	369.356	21
