\id DEU
\c 6
\level verse
8.271	21.796	1
21.796	40.675	2
40.675	56.898	3
56.898	62.864	4
62.864	71.689	5
71.689	77.594	6
77.594	88.082	7
88.082	94.153	8
94.153	101.153	9
101.153	119.851	10
119.851	136.196	11
136.196	143.627	12
143.627	152.416	13
152.416	159.582	14
159.582	174.517	15
174.517	180.688	16
180.688	190.707	17
190.707	206.571	18
206.571	213.670	19
213.670	227.869	20
227.869	238.542	21
238.542	250.222	22
250.222	260.000	23
260.000	275.875	24
275.875	280.875	25
