\id LEV
\c 1
\level verse
6.143	13.195	1
13.195	26.436	2
26.436	39.124	3
39.124	48.514	4
48.514	60.584	5
60.584	65.360	6
65.360	70.989	7
70.989	79.112	8
79.112	92.226	9
92.226	98.724	10
98.724	108.137	11
108.137	118.035	12
118.035	130.002	13
130.002	137.899	14
137.899	147.407	15
147.407	155.647	16
155.647	160.647	17
