\id AMO
\c 6
\level verse
8.700	27.076	1
27.076	43.566	2
43.566	51.296	3
51.296	62.996	4
62.996	70.275	5
70.275	80.203	6
80.203	92.577	7
92.577	111.535	8
111.535	118.029	9
118.029	136.651	10
136.651	146.200	11
146.200	160.722	12
160.722	172.429	13
172.429	177.429	14
