\id MIC
\c 2
\level verse
8.745	26.583	1
26.583	43.617	2
43.617	59.544	3
59.544	82.054	4
82.054	91.392	5
91.392	100.869	6
100.869	115.544	7
115.544	130.215	8
130.215	142.620	9
142.620	152.759	10
152.759	169.512	11
169.512	189.393	12
189.393	194.393	13
