\id 2JN
\c 1
\level verse
5.223	20.413	1
20.413	27.813	2
27.813	38.593	3
38.593	49.704	4
49.704	61.013	5
61.013	72.593	6
72.593	86.421	7
86.421	95.154	8
95.154	108.577	9
108.577	116.806	10
116.806	122.000	11
122.000	136.427	12
136.427	141.427	13
