\id PSA
\c 92
\level verse
10.474	19.533	1
19.533	27.511	2
27.511	36.081	3
36.081	48.800	4
48.800	57.140	5
57.140	62.935	6
62.935	76.407	7
76.407	82.115	8
82.115	93.924	9
93.924	105.319	10
105.319	117.361	11
117.361	127.489	12
127.489	136.387	13
136.387	143.960	14
143.960	148.960	15
