\id 1TI
\c 2
\level verse
7.920	17.746	1
17.746	27.272	2
27.272	32.076	3
32.076	37.985	4
37.985	45.535	5
45.535	53.268	6
53.268	66.274	7
66.274	74.713	8
74.713	87.762	9
87.762	95.292	10
95.292	99.112	11
99.112	105.423	12
105.423	109.438	13
109.438	114.433	14
114.433	119.433	15
