\id DEU
\c 13
\level verse
8.155	18.280	1
18.280	35.000	2
35.000	52.545	3
52.545	69.765	4
69.765	107.285	5
107.285	132.054	6
132.054	140.999	7
140.999	153.737	8
153.737	165.915	9
165.915	179.511	10
179.511	191.696	11
191.696	201.404	12
201.404	215.690	13
215.690	230.749	14
230.749	244.158	15
244.158	270.462	16
270.462	294.532	17
294.532	299.532	18
