\id JER
\c 39
\level verse
6.485	26.079	1
26.079	36.283	2
36.283	58.853	3
58.853	81.873	4
81.873	107.111	5
107.111	119.000	6
119.000	129.712	7
129.712	140.757	8
140.757	161.505	9
161.505	178.895	10
178.895	191.185	11
191.185	203.175	12
203.175	219.872	13
219.872	243.160	14
243.160	251.460	15
251.460	275.440	16
275.440	287.721	17
287.721	292.721	18
