\id NUM
\c 36
\level verse
8.698	25.821	1
25.821	47.122	2
47.122	69.123	3
69.123	87.314	4
87.314	97.711	5
97.711	111.037	6
111.037	125.290	7
125.290	140.163	8
140.163	151.664	9
151.664	158.972	10
158.972	171.561	11
171.561	185.000	12
185.000	190.000	13
