\id ISA
\c 11
\level verse
9.054	18.817	1
18.817	33.367	2
33.367	52.137	3
52.137	78.122	4
78.122	87.362	5
87.362	104.644	6
104.644	117.423	7
117.423	129.753	8
129.753	146.903	9
146.903	164.508	10
164.508	190.332	11
190.332	213.150	12
213.150	231.700	13
231.700	253.699	14
253.699	279.286	15
279.286	284.286	16
