\id PRO
\c 2
\level verse
10.339	20.149	1
20.149	28.808	2
28.808	38.689	3
38.689	48.849	4
48.849	58.109	5
58.109	68.137	6
68.137	77.909	7
77.909	90.000	8
90.000	100.070	9
100.070	108.857	10
108.857	116.856	11
116.856	124.467	12
124.467	132.106	13
132.106	139.356	14
139.356	145.607	15
145.607	155.976	16
155.976	168.206	17
168.206	177.589	18
177.589	184.602	19
184.602	194.751	20
194.751	202.688	21
202.688	207.688	22
