\id TIT
\c 2
\level verse
6.502	11.675	1
11.675	20.913	2
20.913	32.592	3
32.592	39.169	4
39.169	51.832	5
51.832	57.218	6
57.218	65.847	7
65.847	76.363	8
76.363	85.678	9
85.678	96.424	10
96.424	102.195	11
102.195	114.428	12
114.428	122.942	13
122.942	134.000	14
134.000	139.000	15
