\id 2CO
\c 9
\level verse
5.851	12.426	1
12.426	29.786	2
29.786	39.214	3
39.214	52.773	4
52.773	71.801	5
71.801	80.155	6
80.155	91.171	7
91.171	101.612	8
101.612	110.901	9
110.901	123.903	10
123.903	135.120	11
135.120	144.308	12
144.308	159.026	13
159.026	166.782	14
166.782	171.782	15
