\id PSA
\c 59
\level verse
21.245	31.399	1
31.399	41.299	2
41.299	58.535	3
58.535	70.384	4
70.384	85.019	5
85.019	92.209	6
92.209	108.883	7
108.883	117.494	8
117.494	126.803	9
126.803	142.721	10
142.721	158.435	11
158.435	172.912	12
172.912	193.561	13
193.561	200.890	14
200.890	210.830	15
210.830	226.740	16
226.740	231.740	17
