\id PSA
\c 71
\level verse
5.999	13.510	1
13.510	25.570	2
25.570	39.836	3
39.836	49.720	4
49.720	61.965	5
61.965	76.560	6
76.560	85.221	7
85.221	95.290	8
95.290	104.510	9
104.510	114.996	10
114.996	126.420	11
126.420	136.265	12
136.265	147.471	13
147.471	157.927	14
157.927	177.567	15
177.567	196.088	16
196.088	210.996	17
210.996	235.297	18
235.297	248.737	19
248.737	267.204	20
267.204	274.507	21
274.507	291.657	22
291.657	303.018	23
303.018	308.018	24
