\id 1SA
\c 12
\level verse
8.493	22.632	1
22.632	45.482	2
45.482	78.407	3
78.407	92.037	4
92.037	109.292	5
109.292	125.458	6
125.458	141.927	7
141.927	164.335	8
164.335	184.100	9
184.100	205.369	10
205.369	224.650	11
224.650	247.390	12
247.390	259.301	13
259.301	281.605	14
281.605	303.531	15
303.531	313.271	16
313.271	335.779	17
335.779	353.548	18
353.548	372.249	19
372.249	388.442	20
388.442	403.426	21
403.426	416.042	22
416.042	433.598	23
433.598	449.904	24
449.904	454.904	25
