\id 1CO
\c 8
\level verse
8.749	18.517	1
18.517	25.577	2
25.577	31.045	3
31.045	41.786	4
41.786	49.709	5
49.709	65.442	6
65.442	82.724	7
82.724	90.160	8
90.160	97.010	9
97.010	108.785	10
108.785	117.468	11
117.468	127.528	12
127.528	132.528	13
