\id EPH
\c 6
\level verse
5.988	12.283	1
12.283	17.440	2
17.440	22.258	3
22.258	30.278	4
30.278	40.376	5
40.376	52.125	6
52.125	59.195	7
59.195	69.025	8
69.025	83.741	9
83.741	88.713	10
88.713	94.913	11
94.913	109.613	12
109.613	120.563	13
120.563	126.193	14
126.193	130.563	15
130.563	139.012	16
139.012	145.451	17
145.451	158.761	18
158.761	167.379	19
167.379	178.208	20
178.208	189.157	21
189.157	199.566	22
199.566	206.833	23
206.833	211.833	24
