\id 1CO
\c 5
\level verse
8.118	20.048	1
20.048	30.006	2
30.006	45.007	3
45.007	55.176	4
55.176	62.877	5
62.877	71.196	6
71.196	84.017	7
84.017	94.347	8
94.347	100.753	9
100.753	113.925	10
113.925	130.637	11
130.637	138.642	12
138.642	143.642	13
