\id ISA
\c 13
\level verse
10.602	18.092	1
18.092	32.643	2
32.643	50.919	3
50.919	71.320	4
71.320	83.720	5
83.720	95.259	6
95.259	103.600	7
103.600	127.749	8
127.749	143.611	9
143.611	160.141	10
160.141	180.488	11
180.488	190.100	12
190.100	206.350	13
206.350	219.257	14
219.257	229.457	15
229.457	245.637	16
245.637	258.330	17
258.330	274.930	18
274.930	287.880	19
287.880	309.439	20
309.439	326.668	21
326.668	331.668	22
