\id JER
\c 30
\level verse
8.799	13.661	1
13.661	22.665	2
22.665	46.084	3
46.084	53.281	4
53.281	62.237	5
62.237	86.724	6
86.724	102.804	7
102.804	120.814	8
120.814	134.814	9
134.814	164.818	10
164.818	196.048	11
196.048	204.288	12
204.288	215.716	13
215.716	237.966	14
237.966	253.533	15
253.533	271.177	16
271.177	290.755	17
290.755	315.771	18
315.771	336.795	19
336.795	352.301	20
352.301	377.224	21
377.224	385.889	22
385.889	398.965	23
398.965	403.965	24
