\id EZK
\c 29
\level verse
12.224	20.753	1
20.753	34.624	2
34.624	60.014	3
60.014	81.689	4
81.689	107.608	5
107.608	122.178	6
122.178	142.789	7
142.789	157.636	8
157.636	174.386	9
174.386	192.794	10
192.794	206.285	11
206.285	237.111	12
237.111	252.551	13
252.551	267.550	14
267.550	292.866	15
292.866	316.507	16
316.507	324.797	17
324.797	358.997	18
358.997	382.871	19
382.871	397.611	20
397.611	402.611	21
