\id DEU
\c 16
\level verse
6.996	23.464	1
23.464	41.634	2
41.634	64.729	3
64.729	79.074	4
79.074	88.904	5
88.904	108.680	6
108.680	120.894	7
120.894	135.204	8
135.204	141.304	9
141.304	154.743	10
154.743	177.292	11
177.292	188.300	12
188.300	199.207	13
199.207	215.643	14
215.643	236.931	15
236.931	260.713	16
260.713	269.281	17
269.281	285.428	18
285.428	300.048	19
300.048	316.237	20
316.237	325.687	21
325.687	330.687	22
