\id NEH
\c 2
\level verse
11.139	29.591	1
29.591	45.239	2
45.239	62.609	3
62.609	70.480	4
70.480	91.808	5
91.808	112.189	6
112.189	128.641	7
128.641	155.891	8
155.891	172.205	9
172.205	191.465	10
191.465	195.996	11
195.996	213.674	12
213.674	231.804	13
231.804	242.032	14
242.032	252.690	15
252.690	272.700	16
272.700	296.889	17
296.889	316.515	18
316.515	337.925	19
337.925	342.925	20
