\id 2CO
\c 12
\level verse
8.528	16.374	1
16.374	28.939	2
28.939	36.191	3
36.191	45.436	4
45.436	52.130	5
52.130	66.046	6
66.046	77.444	7
77.444	81.782	8
81.782	96.692	9
96.692	113.262	10
113.262	126.772	11
126.772	137.457	12
137.457	146.331	13
146.331	164.570	14
164.570	179.120	15
179.120	187.773	16
187.773	191.936	17
191.936	205.840	18
205.840	222.508	19
222.508	244.333	20
244.333	249.333	21
