\id JOS
\c 1
\level verse
8.434	16.628	1
16.628	30.109	2
30.109	36.902	3
36.902	51.071	4
51.071	65.787	5
65.787	77.861	6
77.861	92.031	7
92.031	109.867	8
109.867	123.160	9
123.160	128.075	10
128.075	146.857	11
146.857	153.451	12
153.451	163.653	13
163.653	189.410	14
189.410	222.503	15
222.503	233.923	16
233.923	247.115	17
247.115	252.115	18
