\id 1CH
\c 10
\level verse
9.339	21.878	1
21.878	35.668	2
35.668	48.658	3
48.658	75.219	4
75.219	86.079	5
86.079	94.589	6
94.589	115.296	7
115.296	130.246	8
130.246	148.498	9
148.498	160.965	10
160.965	171.020	11
171.020	193.159	12
193.159	209.576	13
209.576	214.576	14
