\id JDG
\c 17
\level verse
8.004	14.022	1
14.022	36.291	2
36.291	55.228	3
55.228	73.828	4
73.828	88.179	5
88.179	98.379	6
98.379	107.168	7
107.168	118.748	8
118.748	131.809	9
131.809	146.018	10
146.018	156.089	11
156.089	165.859	12
165.859	170.859	13
