\id MAT
\c 1
\level verse
7.358	11.668	1
11.668	18.375	2
18.375	26.145	3
26.145	33.375	4
33.375	42.049	5
42.049	50.048	6
50.048	56.593	7
56.593	63.159	8
63.159	69.276	9
69.276	75.350	10
75.350	82.472	11
82.472	88.674	12
88.674	95.690	13
95.690	101.486	14
101.486	107.325	15
107.325	114.746	16
114.746	128.691	17
128.691	141.396	18
141.396	149.780	19
149.780	167.125	20
167.125	176.622	21
176.622	182.546	22
182.546	191.986	23
191.986	199.294	24
199.294	204.294	25
