\id JDG
\c 15
\level verse
9.279	25.573	1
25.573	39.326	2
39.326	50.518	3
50.518	64.398	4
64.398	80.848	5
80.848	103.488	6
103.488	113.016	7
113.016	126.006	8
126.006	134.136	9
134.136	150.247	10
150.247	175.956	11
175.956	192.076	12
192.076	212.216	13
212.216	231.336	14
231.336	239.880	15
239.880	253.236	16
253.236	262.107	17
262.107	277.390	18
277.390	299.958	19
299.958	304.958	20
