\id GEN
\c 48
\level verse
8.272	21.406	1
21.406	30.461	2
30.461	40.619	3
40.619	59.179	4
59.179	74.676	5
74.676	87.837	6
87.837	102.537	7
102.537	108.950	8
108.950	122.114	9
122.114	139.795	10
139.795	151.298	11
151.298	158.994	12
158.994	173.556	13
173.556	184.615	14
184.615	200.032	15
200.032	219.862	16
219.862	235.303	17
235.303	243.381	18
243.381	261.953	19
261.953	278.749	20
278.749	290.294	21
290.294	295.294	22
