\id PSA
\c 90
\level verse
9.567	16.636	1
16.636	31.461	2
31.461	41.478	3
41.478	52.097	4
52.097	63.882	5
63.882	71.563	6
71.563	79.512	7
79.512	90.261	8
90.261	99.552	9
99.552	119.681	10
119.681	130.996	11
130.996	138.843	12
138.843	149.347	13
149.347	161.757	14
161.757	171.854	15
171.854	181.924	16
181.924	186.924	17
