\id 1KI
\c 17
\level verse
10.243	37.233	1
37.233	41.281	2
41.281	51.539	3
51.539	59.789	4
59.789	70.499	5
70.499	88.100	6
88.100	94.929	7
94.929	99.257	8
99.257	111.729	9
111.729	134.807	10
134.807	145.647	11
145.647	177.388	12
177.388	199.368	13
199.368	215.430	14
215.430	229.509	15
229.509	240.910	16
240.910	253.654	17
253.654	270.582	18
270.582	287.010	19
287.010	303.129	20
303.129	320.625	21
320.625	331.545	22
331.545	344.945	23
344.945	349.945	24
