\id JER
\c 3
\level verse
6.291	44.936	1
44.936	68.062	2
68.062	83.521	3
83.521	92.211	4
92.211	109.930	5
109.930	134.511	6
134.511	151.508	7
151.508	173.287	8
173.287	188.154	9
188.154	204.764	10
204.764	213.558	11
213.558	235.285	12
235.285	260.847	13
260.847	284.440	14
284.440	297.940	15
297.940	330.137	16
330.137	353.999	17
353.999	373.917	18
373.917	404.237	19
404.237	418.875	20
418.875	439.112	21
439.112	457.035	22
457.035	471.877	23
471.877	494.356	24
494.356	499.356	25
